sep=, 
EKG Messung vom 28.01.2019 16.45.06
gemessen mit dem EKG Dongle der Hochschule Luzern BAT HS18

 
 , Lead1, Lead2, Lead3, aVR, aVL, aVF, V1, V2, V3, V4, V5, V6
0,-56.5367857784731,167419.77883294,167476.315618718,-167448.047225829,-28.2683928892366,83738.1578093592,0,0,0,0,0,0
1,-155.423891962389,461089.158775981,461244.582667943,-461166.870721962,-77.7119459811947,230622.291333971,0,0,0,0,0,0
2,-318.069609311642,943679.700130023,943997.769739335,-943838.734934679,-159.034804655821,471998.884869667,0,0,0,0,0,0
3,-586.777438064804,1741546.03679672,1742132.81423479,-1741839.42551576,-293.388719032402,871066.407117394,0,0,0,0,0,0
4,-1083.89612424886,3217272.62161909,3218356.51774334,-3217814.56968122,-541.948062124429,1609178.25887167,0,0,0,0,0,0
5,-2653.89266947284,7872893.29821091,7875547.19088039,-7874220.24454565,-1326.94633473642,3937773.59544019,0,0,0,0,0,0
6,-1074.581728213,3217432.04422065,3218506.62594886,-3217969.33508475,-537.290864106501,1609253.31297443,0,0,0,0,0,0
7,-587.592455675127,1741429.98486113,1742017.57731681,-1741723.78108897,-293.796227837563,871008.788658403,0,0,0,0,0,0
8,-310.439641620265,943644.58806896,943955.02771058,-943799.80788977,-155.219820810133,471977.51385529,0,0,0,0,0,0
9,-154.480753401935,460996.233910476,461150.714663878,-461073.474287177,-77.2403767009673,230575.357331939,0,0,0,0,0,0
10,-60.8498747712001,167539.25318728,167600.103062051,-167569.678124666,-30.4249373856001,83800.0515310257,0,0,0,0,0,0
11,-3.57495850959094,10.6767537602282,14.2517122698191,-12.4642330150236,-1.78747925479547,7.12585613490955,0,0,0,0,0,0
12,-8.6347347717674,-48.6889402899542,-40.0542055181868,44.3715729040705,-4.3173673858837,-20.0271027590934,0,0,0,0,0,0
13,10.5019810198282,-7.44817910826532,-17.9501601280936,12.6991696181794,5.25099050991412,-8.97508006404678,0,0,0,0,0,0
14,-1.0027295149921,-60.2848381109361,-59.282108595944,59.7834733534401,-0.501364757496049,-29.641054297972,0,0,0,0,0,0
15,-6.13450368723716,33.1629998366989,39.297503523936,-36.2302516803175,-3.06725184361858,19.648751761968,0,0,0,0,0,0
16,6.05144040283631,-45.1703243995726,-51.2217648024089,48.1960446009907,3.02572020141815,-25.6108824012044,0,0,0,0,0,0
17,11.9850677253562,-137.713720949454,-149.69878867481,143.706254812132,5.9925338626781,-74.8493943374051,0,0,0,0,0,0
18,4.83866484757164,-83.0468184119381,-87.8854832595098,85.466150835724,2.41933242378582,-43.9427416297549,0,0,0,0,0,0
19,2.6146487883816,-33.7747536783281,-36.3894024667097,35.0820780725189,1.3073243941908,-18.1947012333549,0,0,0,0,0,0
20,2.70299835051992,98.7374754494813,96.0344770989614,-97.3859762742213,1.35149917525996,48.0172385494807,0,0,0,0,0,0
21,-4.11283712432487,270.182994948642,274.295832072967,-272.239413510804,-2.05641856216243,137.147916036483,0,0,0,0,0,0
22,-8.79291874592309,209.54221767839,218.335136424314,-213.938677051352,-4.39645937296154,109.167568212157,0,0,0,0,0,0
23,11.636954276968,-77.5646863834118,-89.2016406603798,83.3831635218958,5.81847713848401,-44.6008203301899,0,0,0,0,0,0
24,0.0730223578866571,-114.110680500191,-114.183702858078,114.147191679134,0.0365111789433286,-57.0918514290388,0,0,0,0,0,0
25,-4.89729944666033,43.9978391865734,48.8951386332337,-46.4464889099036,-2.44864972333016,24.4475693166169,0,0,0,0,0,0
26,-2.46228127821814,9.72929374626256,12.1915750244807,-10.9604343853716,-1.23114063910907,6.09578751224035,0,0,0,0,0,0
27,10.7229162805888,-121.582860680268,-132.305776960857,126.944318820562,5.36145814029442,-66.1528884804284,0,0,0,0,0,0
28,4.27945925100357,25.0412480880623,20.7617888370587,-22.9015184625605,2.13972962550179,10.3808944185294,0,0,0,0,0,0
29,-16.6708640945144,188.384929065534,205.055793160049,-196.720361112792,-8.3354320472572,102.527896580024,0,0,0,0,0,0
30,9.08358342779684,29.8754281560832,20.7918447282864,-25.3336364421848,4.54179171389842,10.3959223641432,0,0,0,0,0,0
31,-0.200268588785548,56.6842760028376,56.8845445916231,-56.7844102972304,-0.100134294392774,28.4422722958116,0,0,0,0,0,0
32,1.30938302478171,109.470950861083,108.161567836301,-108.816259348692,0.654691512390855,54.0807839181507,0,0,0,0,0,0
33,1.53347226712503,31.6327182159293,30.0992459488043,-30.8659820823668,0.766736133562517,15.0496229744022,0,0,0,0,0,0
34,4.8530774146202,49.9094817613659,45.0564043467457,-47.4829430540558,2.4265387073101,22.5282021733728,0,0,0,0,0,0
35,-11.5282622996019,84.3552639359259,95.8835262355278,-90.1193950857269,-5.76413114980096,47.9417631177639,0,0,0,0,0,0
36,9.60768257282325,2.06884724146221,-7.53883533136104,2.73499404494942,4.80384128641163,-3.76941766568052,0,0,0,0,0,0
37,-6.32450812286697,-38.9477449984406,-32.6232368755736,35.7854909370071,-3.16225406143349,-16.3116184377868,0,0,0,0,0,0
38,11.9289962176117,11.1768421272864,-0.752154090325348,-5.21234401848051,5.96449810880586,-0.376077045162674,0,0,0,0,0,0
39,-16.3596221935004,-106.891638052213,-90.5320158587128,98.711826955463,-8.1798110967502,-45.2660079293564,0,0,0,0,0,0
40,-6.50433350011008,-54.85033056463,-48.3459970645199,51.5981638145749,-3.25216675005504,-24.17299853226,0,0,0,0,0,0
41,-1.86220157059142,101.857197875885,103.719399446476,-102.78829866118,-0.931100785295712,51.859699723238,0,0,0,0,0,0
42,1.08986380239367,-50.3283985102316,-51.4182623126253,50.8733304114285,0.544931901196833,-25.7091311563127,0,0,0,0,0,0
43,-8.46083871595329,67.9358107992157,76.396649515169,-72.1662301571923,-4.23041935797664,38.1983247575845,0,0,0,0,0,0
44,9.66205098142382,353.044644437294,343.38259345587,-348.213618946582,4.83102549071191,171.691296727935,0,0,0,0,0,0
45,3.71795969904633,585.966608518822,582.248648819776,-584.107628669299,1.85897984952317,291.124324409888,0,0,0,0,0,0
46,-12.3186643143417,110.881344490102,123.200008804444,-117.040676647273,-6.15933215717087,61.6000044022221,0,0,0,0,0,0
47,10.0645004167454,325.715883583121,315.651383166376,-320.683633374749,5.03225020837272,157.825691583188,0,0,0,0,0,0
48,-3.72723019574187,-29.1949474014982,-25.4677172057563,27.3313323036273,-1.86361509787093,-12.7338586028782,0,0,0,0,0,0
49,-2.19459358265158,-31.1944868198771,-28.9998932372255,30.0971900285513,-1.09729679132579,-14.4999466186127,0,0,0,0,0,0
50,4.0219787049864,65.7358524359879,61.7138737310015,-63.7248630834947,2.0109893524932,30.8569368655008,0,0,0,0,0,0
51,8.01042862667236,123.25057476206,115.240146135387,-119.245360448724,4.00521431333618,57.6200730676937,0,0,0,0,0,0
52,-9.62076686468208,181.827691729792,191.448458594474,-186.638075162133,-4.81038343234104,95.7242292972369,0,0,0,0,0,0
53,-7.34504648123402,91.0604501037742,98.4054965850082,-94.7329733443912,-3.67252324061701,49.2027482925041,0,0,0,0,0,0
54,3.83725092298118,4.44352485967102,0.606273936689831,-2.52489939818042,1.91862546149059,0.303136968344916,0,0,0,0,0,0
55,2.09158548995038,-9.46138699259609,-11.5529724825465,10.5071797375713,1.04579274497519,-5.77648624127323,0,0,0,0,0,0
56,-2.68614102661377,-101.658722329943,-98.9725813033292,100.315651816636,-1.34307051330688,-49.4862906516646,0,0,0,0,0,0
57,9.59595044792513,-168.483637871657,-178.079588319582,173.28161309562,4.79797522396257,-89.0397941597912,0,0,0,0,0,0
58,4.11978152533993,66.3879692953196,62.2681877699797,-64.3280785326497,2.05989076266997,31.1340938849899,0,0,0,0,0,0
59,3.80125656782184,-80.1091185193218,-83.9103750871436,82.0097468032327,1.90062828391092,-41.9551875435718,0,0,0,0,0,0
60,4.39766122857691,56.31951100062,51.9218497720431,-54.1206803863315,2.19883061428845,25.9609248860215,0,0,0,0,0,0
61,-16.5845970903465,19.7217466704897,36.3063437608362,-28.0140452156629,-8.29229854517325,18.1531718804181,0,0,0,0,0,0
62,0.852343397360528,-25.215178894141,-26.0675222915015,25.6413505928213,0.426171698680264,-13.0337611457508,0,0,0,0,0,0
63,-2.37746784614865,-102.64022436869,-100.262756522541,101.451490445615,-1.18873392307432,-50.1313782612706,0,0,0,0,0,0
64,8.69166377634974,-30.8896315230522,-39.581295299402,35.2354634112271,4.34583188817487,-19.790647649701,0,0,0,0,0,0
65,-1.77716638194397,35.8507103811135,37.6278767630574,-36.7392935720854,-0.888583190971985,18.8139383815287,0,0,0,0,0,0
66,-1.78087111035711,62.7325882741716,64.5134593845287,-63.6230238293501,-0.890435555178556,32.2567296922643,0,0,0,0,0,0
67,3.7044270815968,168.057991253561,164.353564171965,-166.205777712763,1.8522135407984,82.1767820859823,0,0,0,0,0,0
68,-15.441958367097,142.513566399022,157.955524766119,-150.234545582571,-7.72097918354848,78.9777623830596,0,0,0,0,0,0
69,-0.943720010545803,243.822475548805,244.76619555935,-244.294335554077,-0.471860005272902,122.383097779675,0,0,0,0,0,0
70,2.55539158426109,168.701074173558,166.145682589296,-167.423378381427,1.27769579213054,83.0728412946482,0,0,0,0,0,0
71,2.74192340063746,219.115302622056,216.373379221419,-217.744340921738,1.37096170031873,108.186689610709,0,0,0,0,0,0
72,-13.2460456793488,435.026805659989,448.272851339338,-441.649828499663,-6.62302283967438,224.136425669669,0,0,0,0,0,0
73,6.02261030033696,880.786291466473,874.763681166136,-877.774986316304,3.01130515016848,437.381840583068,0,0,0,0,0,0
74,13.5975837796577,378.368402501685,364.770818722027,-371.569610611856,6.79879188982886,182.385409361013,0,0,0,0,0,0
75,2.50929241691483,-38.8855749423965,-41.3948673593113,40.1402211508539,1.25464620845742,-20.6974336796557,0,0,0,0,0,0
76,22.7773498468741,84.0728619380679,61.2955120911938,-72.6841870146309,11.3886749234371,30.6477560455969,0,0,0,0,0,0
77,-0.225827193120494,-10.8528461600654,-10.6270189669449,10.7399325635051,-0.112913596560247,-5.31350948347244,0,0,0,0,0,0
78,-10.1365338371252,128.050742331689,138.187276168814,-133.119009250251,-5.06826691856259,69.0936380844068,0,0,0,0,0,0
79,-15.5054566940817,-49.8146935679251,-34.3092368738435,42.0619652208843,-7.75272834704083,-17.1546184369217,0,0,0,0,0,0
80,1.680530956859,188.812965259305,187.132434302446,-187.972699780876,0.840265478429501,93.5662171512231,0,0,0,0,0,0
81,-9.63704190144199,22.2991143589607,31.9361562604026,-27.1176353096816,-4.81852095072099,15.9680781302013,0,0,0,0,0,0
82,-3.70146459143143,95.399560481048,99.1010250724794,-97.2502927767637,-1.85073229571572,49.5505125362397,0,0,0,0,0,0
83,2.23596184881171,87.6399647677026,85.4040029188909,-86.5219838432968,1.11798092440586,42.7020014594455,0,0,0,0,0,0
84,-5.47127108153654,40.710898415331,46.1821694968676,-43.4465339560993,-2.73563554076827,23.0910847484338,0,0,0,0,0,0
85,3.94205717046862,-164.413410025008,-168.355467195477,166.384438610243,1.97102858523431,-84.1777335977386,0,0,0,0,0,0
86,0.107226875872584,30.5351651814708,30.4279383055982,-30.4815517435345,0.053613437936292,15.2139691527991,0,0,0,0,0,0
87,2.54886649333639,-29.6251327515638,-32.1739992449002,30.899565998232,1.2744332466682,-16.0869996224501,0,0,0,0,0,0
88,2.13906106428476,80.6892776581517,78.5502165938669,-79.6197471260093,1.06953053214238,39.2751082969335,0,0,0,0,0,0
89,-11.4970280030975,-70.7091634652461,-59.2121354621486,64.9606494636973,-5.74851400154876,-29.6060677310743,0,0,0,0,0,0
90,-0.654101366671966,91.1033601556264,91.7574615222984,-91.4304108389624,-0.327050683335983,45.8787307611492,0,0,0,0,0,0
91,-7.55430775712011,86.988531716459,94.5428394735791,-90.765685595019,-3.77715387856006,47.2714197367895,0,0,0,0,0,0
92,10.5499388430035,-81.4709131286363,-92.0208519716398,86.745882550138,5.27496942150174,-46.0104259858199,0,0,0,0,0,0
93,-0.0412593850924168,-133.040672743897,-132.999413358804,133.020043051351,-0.0206296925462084,-66.4997066794022,0,0,0,0,0,0
94,12.2426179072936,-239.517411110108,-251.760029017401,245.638720063755,6.1213089536468,-125.880014508701,0,0,0,0,0,0
95,0.229571649542777,-458.48555012446,-458.715121774003,458.600335949232,0.114785824771388,-229.357560887001,0,0,0,0,0,0
96,-11.5627107463661,-310.560634862923,-298.997924116557,304.77927948974,-5.78135537318303,-149.498962058278,0,0,0,0,0,0
97,-5.6852695310954,-22.0784780503891,-16.3932085192937,19.2358432848414,-2.8426347655477,-8.19660425964685,0,0,0,0,0,0
98,-0.043805246357806,-67.9040127153567,-67.8602074689989,67.8821100921778,-0.021902623178903,-33.9301037344994,0,0,0,0,0,0
99,-3.36765739528346,-40.9446534503077,-37.5769960550242,39.2608247526659,-1.68382869764173,-18.7884980275121,0,0,0,0,0,0
100,9.19969176338054,81.796841373638,72.5971496102575,-77.1969954919477,4.59984588169027,36.2985748051287,0,0,0,0,0,0
101,-1.56301983914454,107.192459543061,108.755479382206,-107.973969462633,-0.781509919572272,54.3777396911028,0,0,0,0,0,0
102,14.2644817245309,73.9925163815205,59.7280346569896,-66.8602755192551,7.13224086226546,29.8640173284948,0,0,0,0,0,0
103,-0.546202933939639,-116.589796645945,-116.043593712006,116.316695178975,-0.27310146696982,-58.0217968560028,0,0,0,0,0,0
104,-6.55520847707521,-78.8074834559229,-72.2522749788477,75.5298792173853,-3.27760423853761,-36.1261374894239,0,0,0,0,0,0
105,0.0207736864394974,-120.552436833794,-120.573210520233,120.562823677014,0.0103868432197487,-60.2866052601166,0,0,0,0,0,0
106,-2.32414772183984,-171.367770231212,-169.043622509373,170.205696370293,-1.16207386091992,-84.5218112546863,0,0,0,0,0,0
107,-13.4650613193517,-83.6855688084615,-70.2205074891099,76.9530381487857,-6.73253065967583,-35.1102537445549,0,0,0,0,0,0
108,5.76046465066611,-86.542197195784,-92.3026618464501,89.422429521117,2.88023232533305,-46.151330923225,0,0,0,0,0,0
109,2.93152699133498,-101.443053487281,-104.374580478616,102.908816982948,1.46576349566749,-52.1872902393079,0,0,0,0,0,0
110,12.6696762476349,-85.0932234032662,-97.7628996509011,91.4280615270836,6.33483812381746,-48.8814498254505,0,0,0,0,0,0
111,-18.6094682252733,-120.805485182354,-102.196016957081,111.500751069718,-9.30473411263665,-51.0980084785406,0,0,0,0,0,0
112,26.072788429592,276.710086216131,250.637297786539,-263.673692001335,13.036394214796,125.31864889327,0,0,0,0,0,0
113,-1.5461469879956,-65.3047123716678,-63.7585653836722,64.53163887767,-0.773073493997799,-31.8792826918361,0,0,0,0,0,0
114,-4.06104690954089,72.1584993631404,76.2195462726813,-74.1890228179109,-2.03052345477045,38.1097731363407,0,0,0,0,0,0
115,8.89738611734356,-278.20645031461,-287.103836431954,282.655143373282,4.44869305867178,-143.551918215977,0,0,0,0,0,0
116,1.29752801163704,-36.9878414955747,-38.2853695072117,37.6366055013932,0.648764005818521,-19.1426847536059,0,0,0,0,0,0
117,-12.2805881886161,-434.076569298748,-421.795981110132,427.93627520444,-6.14029409430805,-210.897990555066,0,0,0,0,0,0
118,-5.71811316069216,-610.874422221706,-605.156309061014,608.01536564136,-2.85905658034608,-302.578154530507,0,0,0,0,0,0
119,10.1331044770486,-46.2233741905948,-56.3564786676434,51.2899264291191,5.06655223852431,-28.1782393338217,0,0,0,0,0,0
120,-11.6847555884451,-79.9514706541086,-68.2667150656634,74.109092859886,-5.84237779422256,-34.1333575328317,0,0,0,0,0,0
121,7.92842228012159,-159.453926311282,-167.382348591404,163.418137451343,3.9642111400608,-83.6911742957018,0,0,0,0,0,0
122,11.530801191082,-3.35533892700914,-14.8861401180911,9.12073952255014,5.765400595541,-7.44307005904557,0,0,0,0,0,0
123,5.26990773895523,-109.645219757396,-114.915127496351,112.280173626874,2.63495386947761,-57.4575637481757,0,0,0,0,0,0
124,-1.81019298004685,-63.8218468326377,-62.0116538525908,62.9167503426143,-0.905096490023425,-31.0058269262954,0,0,0,0,0,0
125,-6.7264998134342,105.253192727629,111.979692541063,-108.616442634346,-3.3632499067171,55.9898462705314,0,0,0,0,0,0
126,-8.03738950687693,-73.7689031657646,-65.7315136588877,69.7502084123262,-4.01869475343847,-32.8657568294439,0,0,0,0,0,0
127,-7.99509225244401,-136.297279176739,-128.302186924295,132.299733050517,-3.99754612622201,-64.1510934621474,0,0,0,0,0,0
128,3.92191488770186,-144.13632879575,-148.058243683452,146.097286239601,1.96095744385093,-74.029121841726,0,0,0,0,0,0
129,-4.5993369545613,139.992753280123,144.592090234684,-142.292421757404,-2.29966847728065,72.2960451173421,0,0,0,0,0,0
130,6.93736326941871,67.256612875557,60.3192496061383,-63.7879312408477,3.46868163470936,30.1596248030692,0,0,0,0,0,0
131,-2.02653051316156,-19.0929607032158,-17.0664301900542,18.079695446635,-1.01326525658078,-8.53321509502712,0,0,0,0,0,0
132,10.0499175812292,189.426192954503,179.376275373274,-184.401234163888,5.02495879061462,89.6881376866368,0,0,0,0,0,0
133,14.7245944668539,-126.629989946232,-141.354584413086,133.992287179659,7.36229723342694,-70.6772922065429,0,0,0,0,0,0
134,-5.89097921643406,45.628674497013,51.519653713447,-48.57416410523,-2.94548960821703,25.7598268567235,0,0,0,0,0,0
135,10.1348207023111,-42.3921745828702,-52.5269952851813,47.4595849340258,5.06741035115556,-26.2634976425907,0,0,0,0,0,0
136,-12.7175770144677,-184.898047898809,-172.180470884341,178.539259391575,-6.35878850723384,-86.0902354421705,0,0,0,0,0,0
137,-12.8487596595951,-77.0715960385569,-64.2228363789618,70.6472162087593,-6.42437982979754,-32.1114181894809,0,0,0,0,0,0
138,1.67721414534026,-57.7740537170612,-59.4512678624014,58.6126607897313,0.838607072670129,-29.7256339312007,0,0,0,0,0,0
139,9.11797193883103,61.1050126460323,51.9870407072012,-56.5460266766167,4.55898596941552,25.9935203536006,0,0,0,0,0,0
140,-3.38781387358904,-69.8020615686546,-66.4142476950656,68.1081546318601,-1.69390693679452,-33.2071238475328,0,0,0,0,0,0
141,-14.3733566951996,-116.111349440791,-101.737992745591,108.924671093191,-7.18667834759981,-50.8689963727957,0,0,0,0,0,0
142,12.0109688356461,114.559683172498,102.548714336852,-108.554198754675,6.00548441782303,51.2743571684259,0,0,0,0,0,0
143,-6.83221983970725,11.7003883607686,18.5326082004758,-15.1164982806222,-3.41610991985362,9.2663041002379,0,0,0,0,0,0
144,-11.6198262734106,287.39720971635,299.01703598976,-293.207122853055,-5.80991313670529,149.50851799488,0,0,0,0,0,0
145,-4.40350193309132,336.861558622128,341.265060555219,-339.063309588673,-2.20175096654566,170.632530277609,0,0,0,0,0,0
146,6.49398790727719,250.104410768981,243.610422861704,-246.857416815343,3.24699395363859,121.805211430852,0,0,0,0,0,0
147,5.44005938494229,142.279171503236,136.839112118294,-139.559141810765,2.72002969247114,68.419556059147,0,0,0,0,0,0
148,8.0196708329604,-166.328589063807,-174.348259896768,170.338424480287,4.0098354164802,-87.1741299483838,0,0,0,0,0,0
149,25.7685922000383,-76.6992953333829,-102.467887533421,89.583591433402,12.8842961000191,-51.2339437667106,0,0,0,0,0,0
150,-3.97325905651087,-0.466769234917592,3.50648982159328,-1.51986029333784,-1.98662952825543,1.75324491079664,0,0,0,0,0,0
151,-3.94380007567815,78.4721082696633,82.4159083453415,-80.4440083075024,-1.97190003783908,41.2079541726707,0,0,0,0,0,0
152,-9.00181118858745,26.3364909735392,35.3383021621266,-30.8373965678329,-4.50090559429373,17.6691510810633,0,0,0,0,0,0
153,3.82464853581041,-64.2849539378949,-68.1096024737053,66.1972782058001,1.91232426790521,-34.0548012368527,0,0,0,0,0,0
154,-1.86216654992313,23.3670967640064,25.2292633139296,-24.298180038968,-0.931083274961566,12.6146316569648,0,0,0,0,0,0
155,-9.72355785555555,106.902149111527,116.625706967083,-111.763928039305,-4.86177892777778,58.3128534835414,0,0,0,0,0,0
156,-2.69044812661014,51.5206461507187,54.2110942773288,-52.8658702140237,-1.34522406330507,27.1055471386644,0,0,0,0,0,0
157,-1.51115106497309,163.508731377951,165.019882442924,-164.264306910438,-0.755575532486546,82.5099412214622,0,0,0,0,0,0
158,-1.94207231595647,39.3443324274267,41.2864047433832,-40.3153685854049,-0.971036157978233,20.6432023716916,0,0,0,0,0,0
159,6.44510952694691,-26.5147994674626,-32.9599089944095,29.737354230936,3.22255476347345,-16.4799544972047,0,0,0,0,0,0
160,-4.45493100126623,-39.8446601149335,-35.3897291136673,37.6171946143004,-2.22746550063312,-17.6948645568336,0,0,0,0,0,0
161,-4.03227562672691,28.4564685612277,32.4887441879546,-30.4726063745911,-2.01613781336346,16.2443720939773,0,0,0,0,0,0
162,0.51272715072264,-281.29112970602,-281.803856856743,281.547493281381,0.25636357536132,-140.901928428371,0,0,0,0,0,0
163,-4.92763934109826,-290.940148410999,-286.0125090699,288.476328740449,-2.46381967054913,-143.00625453495,0,0,0,0,0,0
164,8.52250273394748,-244.790402579994,-253.312905313942,249.051653946968,4.26125136697374,-126.656452656971,0,0,0,0,0,0
165,-2.89782316674246,109.055684092193,111.953507258935,-110.504595675564,-1.44891158337123,55.9767536294676,0,0,0,0,0,0
166,-1.26355748978676,-51.0509353033267,-49.7873778135399,50.4191565584333,-0.631778744893381,-24.89368890677,0,0,0,0,0,0
167,10.1595410500013,-142.098758199107,-152.258299249108,147.178528724107,5.07977052500064,-76.129149624554,0,0,0,0,0,0
168,-9.41938931003097,-129.52788556306,-120.108496253029,124.818190908045,-4.70969465501548,-60.0542481265147,0,0,0,0,0,0
169,3.80519553949125,-212.998925196764,-216.804120736255,214.901522966509,1.90259776974563,-108.402060368127,0,0,0,0,0,0
170,5.47933744668262,-45.6440527465893,-51.1233901932719,48.3837214699306,2.73966872334131,-25.561695096636,0,0,0,0,0,0
171,2.97902911918936,-71.5255691963539,-74.5045983155433,73.0150837559486,1.48951455959468,-37.2522991577716,0,0,0,0,0,0
172,-10.9765775238338,-59.8697035502701,-48.8931260264362,54.3814147883531,-5.48828876191692,-24.4465630132181,0,0,0,0,0,0
173,1.59037612527027,-18.9656153121032,-20.5559914373735,19.7608033747383,0.795188062635134,-10.2779957186867,0,0,0,0,0,0
174,-2.35549667640589,224.205114261567,226.560610937973,-225.38286259977,-1.17774833820295,113.280305468987,0,0,0,0,0,0
175,-8.01578403115855,147.058199760359,155.073983791517,-151.066091775938,-4.00789201557927,77.5369918957585,0,0,0,0,0,0
176,4.83103686175309,-85.3095413028495,-90.1405781646026,87.7250597337261,2.41551843087655,-45.0702890823013,0,0,0,0,0,0
177,-9.42033231048845,20.7010267692967,30.1213590797852,-25.411192924541,-4.71016615524422,15.0606795398926,0,0,0,0,0,0
178,1.93207105944748,135.867047330772,133.934976271325,-134.901011801048,0.96603552972374,66.9674881356623,0,0,0,0,0,0
179,-3.67223284902866,-167.392444294353,-163.720211445325,165.556327869839,-1.83611642451433,-81.8601057226624,0,0,0,0,0,0
180,12.3617673831177,133.922129481798,121.56036209868,-127.741245790239,6.18088369155885,60.7801810493402,0,0,0,0,0,0
181,8.09942424835754,28.6286518531851,20.5292276048276,-24.5789397290064,4.04971212417877,10.2646138024138,0,0,0,0,0,0
182,-6.19639653054764,-74.2439346410392,-68.0475381104916,71.1457363757654,-3.09819826527382,-34.0237690552458,0,0,0,0,0,0
183,8.36187844831147,-40.3847982594161,-48.7466767077276,44.5657374835719,4.18093922415574,-24.3733383538638,0,0,0,0,0,0
184,6.13748111578752,8.94066857971484,2.80318746392732,-5.87192802182108,3.06874055789376,1.40159373196366,0,0,0,0,0,0
185,-8.7091113171773,30.4201439344906,39.1292552516679,-34.7746995930793,-4.35455565858865,19.564627625834,0,0,0,0,0,0
186,-6.49314752579085,346.027139023616,352.520286549407,-349.273712786511,-3.24657376289542,176.260143274703,0,0,0,0,0,0
187,8.96644221106544,102.210459562979,93.2440173519135,-97.7272384574462,4.48322110553272,46.6220086759567,0,0,0,0,0,0
188,15.1708549698233,21.117423923075,5.9465689532517,-13.5319964381633,7.58542748491163,2.97328447662585,0,0,0,0,0,0
189,-13.6798976461869,-9.54015559609979,4.13974205008708,2.70020677300636,-6.83994882309344,2.06987102504354,0,0,0,0,0,0
190,1.09724749979796,-14.53207086373,-15.629318363528,15.080694613629,0.548623749898979,-7.814659181764,0,0,0,0,0,0
191,2.44418193076854,-34.5172979808412,-36.9614799116098,35.7393889462255,1.22209096538427,-18.4807399558049,0,0,0,0,0,0
192,2.36495618644403,6.34120522195008,3.97624903550604,-5.15872712872806,1.18247809322202,1.98812451775302,0,0,0,0,0,0
193,2.72670883237151,-149.752022579487,-152.478731411858,151.115376995673,1.36335441618576,-76.2393657059292,0,0,0,0,0,0
194,1.6120988491748,-171.425787730637,-173.037886579812,172.231837155225,0.8060494245874,-86.518943289906,0,0,0,0,0,0
195,1.86353773163864,-543.815798895666,-545.679336627305,544.747567761486,0.931768865819322,-272.839668313653,0,0,0,0,0,0
196,3.50109394273022,-139.529952849873,-143.031046792603,141.280499821238,1.75054697136511,-71.5155233963014,0,0,0,0,0,0
197,-5.51131332019577,-214.116652160446,-208.605338840251,211.360995500349,-2.75565666009788,-104.302669420125,0,0,0,0,0,0
198,2.73039530383539,-163.922166398901,-166.652561702736,165.287364050819,1.3651976519177,-83.3262808513682,0,0,0,0,0,0
199,0.844621030351846,63.3559023115085,62.5112812811567,-62.9335917963326,0.422310515175923,31.2556406405783,0,0,0,0,0,0
200,-7.39616889963509,151.371727658232,158.767896557867,-155.06981210805,-3.69808444981754,79.3839482789335,0,0,0,0,0,0
201,-8.97907866927562,94.1696219777223,103.148700646998,-98.6591613123601,-4.48953933463781,51.5743503234989,0,0,0,0,0,0
202,1.25344261346618,39.7001509092224,38.4467082957563,-39.0734296024893,0.626721306733089,19.2233541478781,0,0,0,0,0,0
203,6.3435874148272,125.96568579317,119.622098378342,-122.793892085756,3.1717937074136,59.8110491891712,0,0,0,0,0,0
204,-9.19231079641031,45.4533266902145,54.6456374866248,-50.0494820884196,-4.59615539820516,27.3228187433124,0,0,0,0,0,0
205,-1.39331127848709,-16.3566482118622,-14.9633369333751,15.6599925726186,-0.696655639243545,-7.48166846668755,0,0,0,0,0,0
206,-6.01786789268954,146.784153345827,152.802021238516,-149.793087292172,-3.00893394634477,76.4010106192582,0,0,0,0,0,0
207,0.483188416314078,-70.4242413436878,-70.9074297600018,70.6658355518448,0.241594208157039,-35.4537148800009,0,0,0,0,0,0
208,3.89019344418193,91.6433219216415,87.7531284774595,-89.6982251995505,1.94509672209097,43.8765642387298,0,0,0,0,0,0
209,10.3040058643965,346.750930415612,336.446924551215,-341.598927483414,5.15200293219823,168.223462275608,0,0,0,0,0,0
210,1.57674323045649,730.11052811984,728.533784889383,-729.322156504611,0.788371615228243,364.266892444692,0,0,0,0,0,0
211,-0.415369805908995,362.724574518972,363.139944324881,-362.932259421927,-0.207684902954497,181.569972162441,0,0,0,0,0,0
212,-6.77924205869203,249.082241927914,255.861483986606,-252.47186295726,-3.38962102934602,127.930741993303,0,0,0,0,0,0
213,0.874707881070208,132.911338892038,132.036631010968,-132.473984951503,0.437353940535104,66.0183155054838,0,0,0,0,0,0
214,-11.6738475547463,-113.037057165027,-101.363209610281,107.200133387654,-5.83692377737316,-50.6816048051405,0,0,0,0,0,0
215,0.873775792540982,-151.034741291311,-151.908517083852,151.471629187581,0.436887896270491,-75.9542585419258,0,0,0,0,0,0
216,0.22261521400651,-41.3093615694379,-41.5319767834444,41.4206691764412,0.111307607003255,-20.7659883917222,0,0,0,0,0,0
217,1.11266811256064,38.4318239426648,37.3191558301041,-37.8754898863845,0.556334056280321,18.6595779150521,0,0,0,0,0,0
218,2.71441359116579,-41.156570238265,-43.8709838294308,42.5137770338479,1.3572067955829,-21.9354919147154,0,0,0,0,0,0
219,2.736421899579,31.1168919058691,28.3804700062901,-29.7486809560796,1.3682109497895,14.1902350031451,0,0,0,0,0,0
220,4.79555294121383,65.9831563599291,61.1876034187153,-63.5853798893222,2.39777647060691,30.5938017093576,0,0,0,0,0,0
221,-7.72069631621707,56.9428732655069,64.663569581724,-60.8032214236155,-3.86034815810854,32.331784790862,0,0,0,0,0,0
222,3.24244622307015,-94.3758798076015,-97.6183260306716,95.9971029191365,1.62122311153507,-48.8091630153358,0,0,0,0,0,0
223,-4.28094395570224,-207.598196166771,-203.317252211069,205.45772418892,-2.14047197785112,-101.658626105534,0,0,0,0,0,0
224,14.8965479439939,19.3246663064347,4.42811836244073,-11.8763923344377,7.44827397199697,2.21405918122036,0,0,0,0,0,0
225,-0.950022754637757,95.7873183846532,96.7373411392909,-96.2623297619721,-0.475011377318879,48.3686705696455,0,0,0,0,0,0
226,-5.61725171509897,-12.7084543956444,-7.09120268054539,9.89982853809488,-2.80862585754949,-3.5456013402727,0,0,0,0,0,0
227,1.48474979260936,73.9581351777597,72.4733853851503,-73.215760281455,0.742374896304682,36.2366926925752,0,0,0,0,0,0
228,-11.1702993087529,63.3881136121345,74.5584129208873,-68.9732632665109,-5.58514965437644,37.2792064604437,0,0,0,0,0,0
229,-4.42350386510952,1.59917554954882,6.02267941465834,-3.81092748210358,-2.21175193255476,3.01133970732917,0,0,0,0,0,0
230,8.59977060733945,12.7329744511226,4.13320384378312,-8.43308914745285,4.29988530366973,2.06660192189156,0,0,0,0,0,0
231,-12.9820418609015,-83.6749805667496,-70.6929387058481,77.1839596362988,-6.49102093045076,-35.346469352924,0,0,0,0,0,0
232,0.188792255910812,82.4872758121346,82.2984835562238,-82.3928796841792,0.094396127955406,41.1492417781119,0,0,0,0,0,0
233,1.03187583101681,59.024001753045,57.9921259220282,-58.5080638375366,0.515937915508403,28.9960629610141,0,0,0,0,0,0
234,-5.26425787882181,53.7313682100212,58.995626088843,-56.3634971494321,-2.6321289394109,29.4978130444215,0,0,0,0,0,0
235,6.257253849064,155.454401844298,149.197147995234,-152.325774919766,3.128626924532,74.5985739976168,0,0,0,0,0,0
236,-3.17637493956136,-60.6334770729009,-57.4571021333395,59.0452896031202,-1.58818746978068,-28.7285510666698,0,0,0,0,0,0
237,0.426479296584148,-85.459708418377,-85.8861877149611,85.6729480666691,0.213239648292074,-42.9430938574806,0,0,0,0,0,0
238,2.52012056426611,123.069428952062,120.549308387795,-121.809368669929,1.26006028213305,60.2746541938977,0,0,0,0,0,0
239,5.127955865697,-21.8412574009271,-26.9692132666241,24.4052353337756,2.5639779328485,-13.4846066333121,0,0,0,0,0,0
240,2.46089240079164,25.1080146272434,22.6471222264518,-23.8775684268476,1.23044620039582,11.3235611132259,0,0,0,0,0,0
241,1.99031074807863,159.579613990238,157.589303242159,-158.584458616198,0.995155374039314,78.7946516210795,0,0,0,0,0,0
242,-2.29008176227217,24.0961401660752,26.3862219283474,-25.2411810472113,-1.14504088113608,13.1931109641737,0,0,0,0,0,0
243,6.21682377668913,148.631248896592,142.414425119903,-145.522837008248,3.10841188834456,71.2072125599516,0,0,0,0,0,0
244,-2.65860604436602,34.26983294409,36.928438988456,-35.599135966273,-1.32930302218301,18.464219494228,0,0,0,0,0,0
245,10.87976674526,318.190885865537,307.311119120277,-312.751002492907,5.43988337262999,153.655559560138,0,0,0,0,0,0
246,-11.0272256283497,159.009123320982,170.036348949332,-164.522736135157,-5.51361281417485,85.018174474666,0,0,0,0,0,0
247,3.59614790522028,106.33710994618,102.74096204096,-104.53903599357,1.79807395261014,51.3704810204799,0,0,0,0,0,0
248,-5.91471295407973,82.5537352757819,88.4684482298617,-85.5110917528218,-2.95735647703987,44.2342241149308,0,0,0,0,0,0
249,8.46907497852226,264.208404182282,255.73932920376,-259.973866693021,4.23453748926113,127.86966460188,0,0,0,0,0,0
250,-5.06557330413489,174.257666642021,179.323239946156,-176.790453294088,-2.53278665206744,89.6616199730779,0,0,0,0,0,0
251,-8.94519201968797,23.7591194752895,32.7043114949774,-28.2317154851335,-4.47259600984398,16.3521557474887,0,0,0,0,0,0
252,-9.45936239979346,63.4153903487022,72.8747527484957,-68.1450715485989,-4.72968119989673,36.4373763742478,0,0,0,0,0,0
253,8.44272628077306,-136.761253962002,-145.203980242775,140.982617102389,4.22136314038653,-72.6019901213876,0,0,0,0,0,0
254,5.01285209442722,-27.3480103449838,-32.360862439411,29.8544363921974,2.50642604721361,-16.1804312197055,0,0,0,0,0,0
255,0.900997110817116,31.3215740266896,30.4205769158725,-30.8710754712811,0.450498555408558,15.2102884579363,0,0,0,0,0,0
256,-7.29836369896657,181.367408247927,188.665771946893,-185.01659009741,-3.64918184948328,94.3328859734465,0,0,0,0,0,0
257,1.03041060175747,33.5434800207731,32.5130694190157,-33.0282747198944,0.515205300878733,16.2565347095078,0,0,0,0,0,0
258,-2.42197141214274,-58.7258362027642,-56.3038647906214,57.5148504966928,-1.21098570607137,-28.1519323953107,0,0,0,0,0,0
259,-10.2608152122702,-177.659078359953,-167.398263147683,172.528670753818,-5.13040760613512,-83.6991315738414,0,0,0,0,0,0
260,-2.11416103562806,-129.963003794313,-127.848842758685,128.905923276499,-1.05708051781403,-63.9244213793427,0,0,0,0,0,0
261,3.919271250983,81.6162333728862,77.6969621219032,-79.6565977473947,1.9596356254915,38.8484810609516,0,0,0,0,0,0
262,1.08612965105567,36.1210074786795,35.0348778276239,-35.5779426531517,0.543064825527836,17.5174389138119,0,0,0,0,0,0
263,7.17521899973508,-39.5328004035109,-46.708019403246,43.1204099033785,3.58760949986754,-23.354009701623,0,0,0,0,0,0
264,-1.22266932221828,-192.164886806742,-190.942217484524,191.553552145633,-0.61133466110914,-95.471108742262,0,0,0,0,0,0
265,8.29823124172981,61.9023178608622,53.6040866191324,-57.7532022399973,4.1491156208649,26.8020433095662,0,0,0,0,0,0
266,8.95011061962578,11.6556609993568,2.70555037973099,-7.18060568954388,4.47505530981289,1.3527751898655,0,0,0,0,0,0
267,0.526420084730489,40.9786692995694,40.452249214839,-40.7154592572042,0.263210042365245,20.2261246074195,0,0,0,0,0,0
268,6.10158319454058,-101.312890840112,-107.414474034653,104.363682437383,3.05079159727029,-53.7072370173264,0,0,0,0,0,0
269,1.26432833055151,-506.588310539315,-507.852638869867,507.220474704591,0.632164165275753,-253.926319434933,0,0,0,0,0,0
270,-0.593132818205049,-151.303370464098,-150.710237645893,151.006804054996,-0.296566409102525,-75.3551188229467,0,0,0,0,0,0
271,-12.2264916141576,-160.64147109029,-148.414979476132,154.528225283211,-6.11324580707878,-74.2074897380662,0,0,0,0,0,0
272,3.00521321850829,-234.911890517047,-237.917103735555,236.414497126301,1.50260660925414,-118.958551867778,0,0,0,0,0,0
273,6.66727375128539,95.8288522642688,89.1615785129834,-92.4952153886261,3.3336368756427,44.5807892564917,0,0,0,0,0,0
274,-7.27235527912853,58.096753229911,65.3691085090395,-61.7329308694752,-3.63617763956427,32.6845542545198,0,0,0,0,0,0
275,-0.949566640774719,-31.1220474455331,-30.1724808047584,30.6472641251457,-0.47478332038736,-15.0862404023792,0,0,0,0,0,0
276,-2.7261116761656,-70.9758824469172,-68.2497707707516,69.6128266088344,-1.3630558380828,-34.1248853853758,0,0,0,0,0,0
277,2.31769989425084,0.51977765688207,-1.79792223736877,0.639072290243348,1.15884994712542,-0.898961118684383,0,0,0,0,0,0
278,-3.20180071701179,-117.962749247497,-114.760948530486,116.361848888992,-1.6009003585059,-57.3804742652428,0,0,0,0,0,0
279,10.749436257669,-57.6882978991198,-68.4377341567888,63.0630160279543,5.3747181288345,-34.2188670783944,0,0,0,0,0,0
280,-2.35935163148679,-212.921142519015,-210.561790887528,211.741466703272,-1.17967581574339,-105.280895443764,0,0,0,0,0,0
281,-20.1197257542808,-556.014505862258,-535.894780107978,545.954642985118,-10.0598628771404,-267.947390053989,0,0,0,0,0,0
282,0.327497108752141,-125.599842208438,-125.92733931719,125.763590762814,0.16374855437607,-62.9636696585949,0,0,0,0,0,0
283,-2.1033477577148,-184.725688726729,-182.622340969014,183.674014847871,-1.0516738788574,-91.3111704845069,0,0,0,0,0,0
284,0.800602546602022,-85.4680831671285,-86.2686857137305,85.8683844404295,0.400301273301011,-43.1343428568653,0,0,0,0,0,0
285,-16.1710678382078,-290.541361888172,-274.370294049964,282.455827969068,-8.08553391910391,-137.185147024982,0,0,0,0,0,0
286,16.194735062978,-95.0849568245758,-111.279691887554,103.182324356065,8.097367531489,-55.6398459437769,0,0,0,0,0,0
287,1.13006179369404,-14.756360067433,-15.886421861127,15.32139096428,0.56503089684702,-7.94321093056351,0,0,0,0,0,0
288,2.56559949199436,-72.5469216554775,-75.1125211474719,73.8297214014747,1.28279974599718,-37.5562605737359,0,0,0,0,0,0
289,7.73245187211432,77.3883829964616,69.6559311243473,-73.5221570604044,3.86622593605716,34.8279655621736,0,0,0,0,0,0
290,-2.28609023184981,-24.7299623530125,-22.4438721211627,23.5869172370876,-1.14304511592491,-11.2219360605814,0,0,0,0,0,0
291,0.274873976479284,87.4296480288031,87.1547740523238,-87.2922110405634,0.137436988239642,43.5773870261619,0,0,0,0,0,0
292,3.14644188748207,-207.190429674258,-210.33687156174,208.763650617999,1.57322094374103,-105.16843578087,0,0,0,0,0,0
293,5.28463411339908,-118.873697452655,-124.158331566054,121.516014509354,2.64231705669954,-62.0791657830268,0,0,0,0,0,0
294,-10.2179247056192,-4.55547735904111,5.66244734657812,-0.553484993768507,-5.10896235280961,2.83122367328906,0,0,0,0,0,0
295,1.58845353522338,72.8349090670818,71.2464555318584,-72.0406822994701,0.79422676761169,35.6232277659292,0,0,0,0,0,0
296,0.625242807378527,59.4743596971966,58.8491168898181,-59.1617382935074,0.312621403689263,29.4245584449091,0,0,0,0,0,0
297,-3.35843729792396,43.1575151318975,46.5159524298215,-44.8367337808595,-1.67921864896198,23.2579762149107,0,0,0,0,0,0
298,3.92479146303958,-6.82112131285248,-10.7459127758921,8.78351704437227,1.96239573151979,-5.37295638794603,0,0,0,0,0,0
299,-4.76640457563917,-125.164110495185,-120.397705919546,122.780908207365,-2.38320228781959,-60.1988529597729,0,0,0,0,0,0
300,-0.0575107712065801,-145.039693195635,-144.982182424428,145.010937810031,-0.0287553856032901,-72.4910912122141,0,0,0,0,0,0
301,-2.41063771242625,-111.377236328583,-108.966598616156,110.171917472369,-1.20531885621313,-54.4832993080781,0,0,0,0,0,0
302,6.11414833911113,11.5688329518016,5.45468461269047,-8.51175878224603,3.05707416955556,2.72734230634524,0,0,0,0,0,0
303,5.37429020047421,75.7499722413486,70.3756820408744,-73.0628271411115,2.6871451002371,35.1878410204372,0,0,0,0,0,0
304,6.23977746779565,19.8313152879709,13.5915378201753,-16.7114265540731,3.11988873389782,6.79576891008765,0,0,0,0,0,0
305,-11.8407550498086,30.2686912177887,42.1094462675974,-36.1890687426931,-5.92037752490432,68163.5910607704,136285.072675273,136339.617356765,136568.731003001,136496.387302777,136218.986780905,136152.402860465
306,-0.635452195303515,171.072455454589,171.707907649892,-171.39018155224,-0.317726097651757,187757.831946542,375343.955985435,375494.045086928,376125.274724192,375926.166156427,375161.973489031,374978.922548027
307,-1.36664376629051,317.608639539685,318.975283305976,-318.29196142283,-0.683321883145254,384260.86461036,768202.753937415,768509.81754009,769801.81587969,769394.340853457,767830.253087402,767455.7366703
308,3.04764625246753,126.621048453322,123.573402200855,-125.097225327088,1.52382312623376,708924.134565681,1417724.69572916,1418291.11196489,1420675.59106008,1419924.09155448,1417037.07425318,1416346.35969282
309,-2.72912916779751,531.076340306812,533.80546947461,-532.440904890711,-1.36456458389875,1309805.50814847,2619077.21082747,2620123.92103465,2624529.17286307,2623140.88116989,2617807.22133271,2616531.05455161
310,0.530261091917055,1288.10996215788,1287.57970106596,-1287.84483161192,0.265130545958527,3205151.72971125,6409015.87972144,6411578.24953517,6422356.82526273,6418958.16054234,6405908.20456701,6402783.19354276
311,-1.67002115637297,470.194275865215,471.864297021588,-471.029286443401,-0.835010578186484,1310016.84819605,2619561.83209508,2620603.4504625,2625017.8913286,2623634.81292048,2618292.00626049,2617027.38033627
312,-3.41791939677205,128.249428286857,131.667347683629,-129.958387985243,-1.70895969838602,709268.841702167,1418406.01605665,1418969.78939665,1421357.66604197,1420608.62092121,1417716.91399292,1417028.52547182
313,0.42808874885668,171.201304704504,170.773215955647,-170.987260330076,0.21404437442834,384610.647086198,769050.520956441,769353.898367019,770652.779000471,770258.193554489,768677.440476375,768313.25718216
314,-14.0792874837935,-21.7548776491021,-7.67559016530868,14.7152339072054,-7.03964374189673,188097.98545116,376203.646492485,376366.227977573,377008.86847254,376797.405487199,376035.618671894,375840.96548363
315,-3.00633139401907,43.6739776789909,46.68030907301,-45.1771433760005,-1.50316569700954,68662.7601906995,137278.840072326,137325.344013154,137555.876058731,137473.040959388,137208.388704683,137140.724207917
316,19.0826613547979,-67.5208742203831,-86.603535575181,77.0622048977821,9.54133067739895,456.096427184442,998.796389944066,986.584732344665,998.075909959298,993.306097375142,999.485225451645,1000.27522081524
317,-5.76872352979262,-68.7125125810853,-62.9437890512927,65.828150816189,-2.88436176489631,463.064960707503,989.073710466299,997.074809580867,988.899193568039,987.238518963452,1005.02396135288,996.760488659871
318,10.6962482524978,100.808816401986,90.1125681494887,-95.4606922757375,5.34812412624888,587.937537935839,1085.76250772219,1078.35849566694,1077.7597429482,1081.81871832471,1076.48825250685,1073.78260127406
319,-0.318075376155321,-149.983246503776,-149.665171127621,149.824208815699,-0.15903768807766,431.847013341496,1013.35919781061,1017.02075169169,1007.04671901313,1008.78346639048,1002.53196109051,998.579662583215
320,-0.69633859640453,-86.3239797636634,-85.6276411672588,85.9758104654611,-0.348169298202265,480.738798770486,1047.10523870823,1048.38441229079,1050.87860711044,1037.11139476646,1054.2107262371,1058.27312877245
321,2.39165949256858,128.057804124634,125.666144632065,-126.861974378349,1.19582974628429,643.902737069962,1162.13932950786,1168.54801254443,1159.93418996356,1160.6876783378,1160.38325421908,1171.23976097911
322,3.30550817289623,-16.355478432175,-19.6609866050712,18.0082325186231,1.65275408644811,529.459124633577,1078.57923587222,1077.86425452409,1086.23558752603,1083.71591791968,1085.45551314182,1084.17212669182
323,-0.448300211428432,-34.6741757262498,-34.2258755148214,34.4500256205356,-0.224150105714216,525.3200237274,1084.86592296962,1081.47846025031,1089.11390989495,1081.6323742595,1085.11556780594,1073.95705292816
324,3.57946340224589,81.7508075655205,78.1713441632746,-79.9610758643976,1.78973170112295,620.669972695425,1163.16860122757,1183.20113219944,1173.41673910967,1176.78708658024,1176.94815026261,1177.65319129877
325,-11.3795259191829,-28.7114815428795,-17.3319556236966,23.021718583288,-5.68976295959146,558.879337944483,1135.09063151266,1137.67242730159,1110.67440791597,1119.91877560064,1122.42219579712,1123.94589243922
326,-1.85608420806238,-49.1809499200026,-47.3248657119402,48.2529078159714,-0.928042104031192,538.253406805816,1123.83167932357,1114.97858521482,1125.05480016363,1125.89044983071,1121.76109864993,1125.31236653737
327,-2.71660303178942,-59.336969689437,-56.6203666576475,57.9786681735422,-1.35830151589471,535.826411045957,1128.27318874956,1127.66290814991,1120.27359432864,1121.44318851706,1118.89976943494,1134.21756923565
328,1.65297310563619,-107.229143299512,-108.882116405148,108.05562985233,0.826486552818096,1188.41723532506,2485.71658705527,2480.28726159153,2479.08092813427,2483.05767618676,2487.84020863238,2475.22445436148
329,0.724165707302745,-137.594127435761,-138.318293143064,137.956210289412,0.362082853651373,2401.50597545921,4941.33024406148,4945.92101417115,4945.26074321065,4936.90143078813,4960.13226170765,4960.4885338842
330,4.8048990732641,-44.8488689643564,-49.6537680376205,47.2513185009884,2.40244953663205,4476.57324794213,9002.80026392188,8996.77651183866,8999.95296533188,8989.75253225135,9023.05832569388,8996.44510674113
331,8.10609316342743,-167.685921098862,-175.79201426229,171.738967680576,4.05304658171372,7696.33031972815,15568.4526537186,15557.6199119204,15553.985721866,15532.8949563979,15564.5825584494,15559.1892963284
332,-3.60200649956823,-495.401357668248,-491.79935116868,493.600354418464,-1.80100324978412,13571.0147352013,27633.8288215713,27631.1545721658,27616.5333277712,27591.0975179365,27633.1550284187,27639.2539601263
333,1.25968429457862,-733.889759122016,-735.149443416594,734.519601269305,0.62984214728931,32677.2019881016,66089.5534196197,66114.3883268205,66041.9592992389,66000.2299995323,66138.1943554299,66125.7125687401
334,-1.03441339309211,-143.020848515211,-141.986435122119,142.503641818665,-0.517206696546054,13875.1100940217,27892.2066231655,27890.8088528601,27856.5219519216,27848.0485902108,27883.8361217379,27901.2076833635
335,-1.19305930106202,-21.4934007298725,-20.3003414288105,20.8968710793415,-0.596529650531011,7842.40809224849,15705.1165259258,15708.6686358218,15685.6684372685,15689.1776115117,15713.4588591881,15702.940921235
336,-1.04692955323844,-151.203904484981,-150.156974931742,150.680439708362,-0.523464776619221,4454.49231640705,9059.14160774584,9066.75864732312,9046.73874244635,9054.5389705761,9082.223880401,9067.75141389904
337,-9.98840956247295,-40.723830425035,-30.735420862562,35.7296256437985,-4.99420478123648,2540.93966235417,5112.6147455709,5116.21811241863,5113.02644676316,5113.32344958483,5126.04368890804,5125.56351472347
338,8.21809115220094,-121.341568855016,-129.559660007217,125.450614431116,4.10904557610047,1249.6053315559,2628.77032311901,2653.13748936442,2649.21437249958,2636.36145852055,2641.39971840172,2652.58209916481
339,-8.06893618882168,-252.653553277953,-244.584617089131,248.619085183542,-4.03446809441084,444.069512209418,1132.72364150797,1131.83759921309,1129.10407587173,1140.54909268572,1142.28109811153,1139.23314514372
340,8.14944100013236,-268.102122391632,-276.251563391765,272.176842891698,4.07472050006618,437.048288363178,1150.34814011812,1161.96592883131,1155.51601917096,1136.20053607135,1152.05704695007,1164.36534527704
341,10.5009353628557,-137.36917878181,-147.870114144665,142.619646463238,5.25046768142784,546.259472510676,1240.38905916602,1235.53934750761,1233.53395273144,1219.14661736536,1231.48807936866,1229.83158959448
342,-4.0249920807255,-227.32902040286,-223.304028322134,225.316524362497,-2.01249604036275,468.157476547625,1159.61898141738,1150.07886439489,1159.88032261984,1171.83076040994,1153.86324637575,1160.50132394405
343,3.10000648381538,-106.77925374161,-109.879260225425,108.329256983518,1.55000324190769,559.8932716485,1229.66580352242,1244.53834028015,1226.19563233672,1235.40625116133,1241.50636019243,1225.74420581706
344,-6.81046445443644,-10.4901915555238,-3.67972710108734,7.08495932830556,-3.40523222721822,632.743287974998,1269.16630305108,1274.73237123981,1278.27101133246,1273.5670832964,1269.17935900696,1262.24222852077
345,-5.2161877618928,74.8918843792344,80.1080721411272,-77.4999782601808,-2.6080938809464,701.643717330677,1323.17936252023,1319.86276417944,1314.6942588728,1307.89087289729,1321.23006607109,1316.43925979943
346,9.21490607486339,132.886318455247,123.671412380383,-128.278865417815,4.6074530374317,721.543225474379,1319.41503856838,1332.1746472542,1335.04977423509,1344.87282683238,1329.61901075285,1324.96806141487
347,6.68690055957995,-32.8228846026177,-39.5097851621977,36.1663348824077,3.34345027978998,601.546357967018,1242.60250109623,1236.45725475755,1226.239303601,1243.84464914937,1234.6187828827,1257.0193487989
348,7.87418659438845,0.0804783479834441,-7.793708246405,3.85661494921078,3.93709329719422,633.071923644151,1273.93755553471,1290.49673572116,1282.35023244563,1271.45063704535,1273.39892932036,1274.40386883929
349,-3.54717868851731,-90.6572620838706,-87.1100833953533,88.8836727396119,-1.77358934425865,562.599234865862,1212.30855312708,1200.00836255806,1197.31936707377,1203.88828444347,1199.68918365019,1201.33182732284
350,-4.23354070947971,-61.3005230419221,-57.0669823324424,59.1837526871823,-2.11677035473986,575.608652164286,1208.28428666102,1212.05609060757,1203.82214765926,1205.42781964914,1212.18540607995,1218.24429608969
351,-0.386911356588826,-120.821625382348,-120.43471402576,120.628169704054,-0.193455678294413,541.656791765257,1203.74829755627,1202.71028879014,1198.83959075069,1199.76114533938,1202.71683400238,1213.72121715959
352,-2.9827003061655,-87.3060880434641,-84.3233877372986,85.8147378903814,-1.49135015308275,563.522509263552,1211.3684062644,1210.71200080184,1212.23136282605,1201.63041089705,1209.17598630273,1202.47872511763
353,10.3985509781924,-81.7915054737823,-92.1900564519747,86.9907809628785,5.19927548909618,565.060558315468,1222.31117308291,1223.7957600558,1224.21143053152,1211.32902289528,1237.08277127345,1224.44557462653
354,-8.80658059305279,-65.352515574923,-56.5459349818702,60.9492252783966,-4.40329029652639,574.742722623167,1206.0313802282,1192.75389072087,1194.87075955866,1220.65727392543,1198.88239637096,1196.78667818769
355,-6.59604881628184,56.0438791385677,62.6399279548496,-59.3419035467086,-3.29802440814092,655.754058612918,1248.86818927099,1239.16749728212,1248.91288512683,1252.71539601835,1247.06709293163,1249.23837857196
356,-6.5338122730318,17.230998094019,23.7648103670508,-20.4979042305349,-3.2669061365159,630.5980300175,1237.43124966795,1247.7443048147,1235.3779364306,1224.54849766841,1234.35098953082,1229.52346464939
357,-0.164470963878557,79.1404760399018,79.3049470037804,-79.2227115218411,-0.0822354819392785,640.853382875881,1202.40181874798,1202.40479409113,1221.17554727133,1217.54677620772,1212.89983266682,1215.51706558061
358,4.00504043736146,-103.441126982507,-107.446167419868,105.443647201188,2.00252021868073,495.781094572652,1099.00835656517,1092.5186239015,1096.50182629711,1100.28240769412,1108.21146213269,1090.52609995287
359,4.83836075608269,-222.032640767662,-226.871001523745,224.451821145703,2.41918037804135,393.432351443334,1013.73570441041,997.767148135463,1008.8807170004,999.004723687336,1010.22930786372,1013.36988046815
360,-4.98836959982873,37.2752233210485,42.2635929208773,-39.7694081209629,-2.49418479991436,601.301779787696,1160.33996665452,1165.49124270357,1161.64349634823,1151.35952333751,1168.68899090061,1164.10268404122
361,19.2615506499133,-44.2209030859231,-63.4824537358363,53.8516784108797,9.63077532495663,526.240979486945,1115.96441270973,1124.37887037161,1111.09158731831,1102.87315352325,1121.96674215252,1125.86610611703
362,-3.47275700722821,144.621186663629,148.093943670858,-146.357565167244,-1.73637850361411,684.022325509563,1219.95070734827,1229.16914149217,1210.39000396553,1230.55983816096,1223.98038284524,1222.42171143834
363,-7.73158850742038,115.474800913595,123.206389421015,-119.340595167305,-3.86579425371019,665.120876401983,1207.03536338295,1194.42924072195,1210.41797967735,1196.12639404766,1205.3565702023,1207.33940473251
364,-0.718527962599183,-67.5717280976532,-66.8532001350541,67.2124641163537,-0.359263981299591,513.558750493656,1093.97070112237,1101.84980911971,1093.99998624393,1096.63712827032,1083.50826267284,1092.49490364845
365,-1.60334686122951,-61.9588477573998,-60.3555008961703,61.157174326785,-0.801673430614755,544.14627341801,1148.64804773219,1148.89078985731,1137.94961332061,1144.3389282836,1153.39608459486,1143.31414948709
366,8.15455773362191,-46.495136623038,-54.6496943566599,50.5724154898489,4.07727886681096,530.485881862813,1115.62145808229,1115.73628098625,1110.64535166265,1113.40477393047,1106.16923094197,1108.99717873565
367,11.5134932743385,21.5871762062015,10.073682931863,-15.8304295690323,5.75674663716927,571.532937255281,1132.9921915787,1120.90127445519,1134.06793776029,1124.15283792707,1123.4108599204,1133.37097636572
368,17.5139383538917,-27.4326210134022,-44.946559367294,36.1895901903481,8.75696917694586,536.262849019709,1117.47225740671,1119.3634724454,1124.06378792512,1107.34711204167,1132.18296576437,1119.34648925092
369,-8.49373538649525,-153.82236618016,-145.328630793665,149.575498486913,-4.24686769324762,441.333924817722,1027.99648042911,1025.72290325255,1021.69944110388,1016.29730616126,1025.36739435425,1028.73665520479
370,-12.2385474819748,-68.9620825946331,-56.7235351126583,62.8428088536457,-6.11927374098741,525.675145604531,1108.07382632172,1094.1589386205,1105.60101424871,1115.9925175253,1109.49270939882,1104.4847424108
371,-10.3225243096822,-84.0822650881601,-73.7597407784779,78.921002933319,-5.1612621548411,506.921346312069,1087.60243340262,1080.42850265221,1076.94858217778,1081.70488242185,1073.91319868364,1083.66844978361
372,-1.45396211257321,27.7727300792758,29.226692191849,-28.4997111355624,-0.726981056286604,578.435674696899,1127.64465720195,1131.11153593863,1133.85337727665,1114.39125770621,1125.85673929635,1118.98672807039
373,-2.58732846326893,73.4633911488054,76.0507196120743,-74.7570553804399,-1.29366423163447,876.934352226555,1677.81798484104,1670.51702567589,1682.68103238184,1681.16522676032,1685.88691666847,1673.68915137666
374,6.58454228611663,3.10743591753999,-3.47710636857664,0.184835225518327,3.29227114305831,1284.62297221522,2572.72305079902,2588.84920723343,2573.44310077489,2574.27186029174,2574.06104625869,2575.95128705798
375,4.73122846556362,-160.958604015381,-165.689832480944,163.324218248163,2.36561423278181,1922.92023757975,4011.53030764044,4009.13696260715,3988.95021527607,4003.61732589334,4001.83760615249,4001.4347544504
376,-4.4978816685034,-89.4297103841673,-84.9318287156639,87.1807695499156,-2.2489408342517,3242.75287708413,6570.43758288393,6567.00570135863,6585.7561681541,6569.22155846693,6586.4709169924,6582.53369109373
377,-2.95418310671812,-108.999278140691,-106.045095033973,107.522186587332,-1.47709155335906,5562.33192291234,11230.7089408587,11238.3210536898,11238.9283224655,11225.6630548352,11236.336984682,11243.5658263683
378,-4.86853702986264,-223.441017804987,-218.572480775125,221.006749290056,-2.43426851493132,12968.9799842471,26156.5324492693,26175.8756711887,26130.8821378057,26110.7559230237,26180.2161234162,26178.8630519324
379,-9.7197740492411,-188.913868313597,-179.194094264356,184.053981288977,-4.85988702462055,5188.9716689575,10557.1374321794,10580.9984895955,10573.3703117554,10551.3715263803,10590.6528436071,10583.8434563025
380,7.8926792840648,-31.7595391407085,-39.6522184247733,35.7058787827409,3.9463396420324,2814.12696333534,5667.90614509545,5657.46079856087,5651.00057310166,5659.58156942515,5664.55114725302,5662.20222727611
381,8.48001994166407,-126.36492662676,-134.844946568424,130.604936597592,4.24000997083203,1411.29604214308,2957.43703085458,2965.80173366232,2968.73242921403,2950.66879507212,2953.28552027614,2964.04802554488
382,-1.68207910776255,-27.2818128691579,-25.5997337613953,26.4407733152766,-0.841039553881274,602.847902485315,1231.29553873203,1216.08266435162,1214.59833040266,1230.50991619669,1222.53776092525,1221.95898979533
383,2.480619489128,92.2859568088898,89.8053373197617,-91.0456470643257,1.240309744564,211.540184821555,333.275032323349,334.441004072782,327.654719088168,339.274715461914,329.572527902288,344.47961613338
384,-19.6434234015178,80.1304160286963,99.7738394302141,-89.9521277294552,-9.8217117007589,-32.2625656298624,-164.298970689939,-160.377448886167,-178.023736435076,-163.411251809594,-171.867510254902,-178.300264882651
385,-8.07465039758245,111.074631258787,119.14928165637,-115.111956457578,-4.03732519879122,-9.65139795948926,-138.452077575348,-135.538999470067,-134.969280252728,-139.302223485516,-136.426414892834,-135.407878019119
386,6.89025140347076,151.886122514814,144.995871111343,-148.440996813079,3.44512570173538,2.80008762871148,-139.39569585392,-141.654299443791,-144.049868790345,-146.136761469505,-135.204911434615,-138.886351453461
387,4.02480007548002,280.557473486115,276.532673410635,-278.545073448375,2.01240003774001,123.959597345121,-28.6134787203919,-31.4685887891974,-37.6949254219653,-42.5158728458337,-30.2939032153517,-55.5869704997167
388,-3.28015074561699,78.5709013706364,81.8510521162534,-80.2109767434449,-1.6400753728085,-41.6078213729634,-165.06669486218,-172.274507238908,-159.961910085374,-159.046034349536,-151.457857388334,-146.004358910606
389,-0.751119780907175,116.383944523375,117.135064304282,-116.759504413829,-0.375559890453587,-31.0367471319914,-179.208558568265,-175.89754563896,-158.442381803732,-164.579085046542,-184.983364647371,-174.140245432704
390,5.5674523031048,539.774146009499,534.206693706394,-536.990419857946,2.7837261515524,278.308048381645,22.4094030568958,18.0962627391564,7.74200627559912,13.6949461889162,11.8455099627026,9.83969525201246
391,5.20481443568133,94.7050421221647,89.5002276864834,-92.1026349043241,2.60240721784066,-68.9480331343366,-227.396293955157,-224.151320573059,-216.379131742811,-211.85252292658,-218.381778404641,-224.325781952677
392,9.63409256236628,194.475822867913,184.841730305547,-189.65877658673,4.81704628118314,0.237679907353595,-184.366370490839,-173.013340664213,-187.756962283223,-192.537817823584,-188.22966272448,-183.683590558066
393,0.0747965183691122,-174.29049151318,-174.365288031549,174.327889772365,0.0373982591845561,-295.508915915794,-416.652543800039,-406.961117549217,-383.689531113923,-384.815050780016,-391.493190554669,-410.30379115665
394,-19.5910117173044,-6.27322852652287,13.3177831907815,-3.52227733212931,-9.79550585865218,-150.322050615912,-313.961884422606,-318.795090377826,-308.788846554788,-309.346516182879,-310.211528283631,-304.630938956951
395,-0.00685057108057663,113.859158872016,113.866009443096,-113.862584157556,-0.00342528554028831,-68.1463222065649,-250.158653856