sep=, 
EKG Messung vom 28.01.2019 19.35.52
gemessen mit dem EKG Dongle der Hochschule Luzern BAT HS18

 
 , Lead1, Lead2, Lead3, aVR, aVL, aVF, V1, V2, V3, V4, V5, V6
0,-56.3202527038811,167444.030537295,167500.350789999,-167472.190663647,-28.1601263519406,152816.604228693,138132.857667386,138187.835415028,138413.787678374,138340.101473087,138068.11427808,138001.7035841
1,-155.1523477023,461148.652125022,461303.804472724,-461226.228298873,-77.5761738511501,420867.031246162,380430.258019601,380581.583115452,381203.73802596,381000.953779496,380251.929548588,380068.922616532
2,-317.375522416667,943796.363906774,944113.739429191,-943955.051667983,-158.687761208334,861360.911933974,778608.084438756,778917.708303158,780190.916916241,779776.172632626,778242.793211738,777868.471916916
3,-585.601830603322,1741755.75223953,1742341.35407013,-1742048.55315483,-292.800915301661,1589631.11286802,1436920.87166591,1437492.27500188,1439841.8700689,1439076.53406684,1436246.74810368,1435555.7913171
4,-1081.79778323183,3217662.55803244,3218744.35581567,-3218203.45692406,-540.898891615914,2936640.43668781,2654536.51755994,2655591.92006877,2659932.95482468,2658518.75178467,2653291.74774726,2652014.67469418
5,-2647.42513666116,7873891.40175939,7876538.82689605,-7875215.11432772,-1323.71256833058,7186176.0206765,6495813.21445695,6498396.50757146,6509019.60327013,6505557.70650201,6492767.47090407,6489642.91694507
6,-1080.8788381787,3217550.2055432,3218631.08438138,-3218090.64496229,-540.439419089351,2936746.6346341,2654862.18488682,2655913.99089876,2660250.62015515,2658842.42208766,2653615.81182476,2652334.93844247
7,-577.869169617305,1741528.72972623,1742106.59889584,-1741817.66431104,-288.934584808652,1589744.22893591,1437381.85897597,1437950.65802302,1440299.31204834,1439539.16804322,1436702.07628793,1436013.28106914
8,-315.499729276053,943657.764483192,943973.264212468,-943815.51434783,-157.749864638026,861594.07885703,779214.893501593,779524.058764706,780799.103498842,780377.789380099,778863.386802177,778470.681789992
9,-153.346326882602,461085.436791527,461238.783118409,-461162.109954968,-76.6731634413009,421183.81528465,381128.84745089,381274.030524225,381906.263138399,381694.148566964,380968.177859309,380765.081397381
10,-49.3928311080963,167397.457213053,167446.850044161,-167422.153628607,-24.6964155540481,153151.698424742,138856.546805323,138917.326167253,139121.912177918,139053.22878747,138780.958046444,138721.435028695
11,0.608857246581465,-34.6380957968067,-35.2469530433882,34.9425244200975,0.304428623290733,334.599820621355,704.446594286099,708.801562693756,717.74034545524,723.657132378983,722.916358394898,699.084625318152
12,5.07348896353506,-147.625229493657,-152.698718457192,150.161973975424,2.53674448176753,261.845469360735,676.389657178661,680.785288929939,666.978671155608,663.233558713808,673.207473168004,674.333849242073
13,-7.40102487051627,108.558376394474,115.95940126499,-112.258888829732,-3.70051243525813,446.479750027618,777.000098790246,802.884307033324,795.437172870181,787.225330244692,791.091966385982,796.821918242727
14,5.39500068206689,87.8828040731896,82.4878033911227,-85.1853037321562,2.69750034103345,422.898959331826,763.310115272528,763.781658197637,755.608464264893,755.224111650343,753.753200347302,755.170198052743
15,0.103813036519568,379.035966211261,378.932153174741,-378.984059693001,0.0519065182597842,649.907615954828,920.883078734914,903.931917937036,917.283102381713,917.604120548232,910.793224176363,916.066901738814
16,1.64405087663908,80.8654192348768,79.2213683582377,-80.0433937965572,0.822025438319542,427.43796870322,775.654569048202,771.521211665065,774.678783310723,784.206574045355,767.556976242398,762.971387913596
17,-2.92341303353896,327.35741596992,330.280829003459,-328.81912248669,-1.46170651676948,626.205973979726,922.131118955993,902.386377251241,906.943569294963,915.948693734303,927.405818280735,907.890586240683
18,-1.10903841658728,36.3140752665058,37.4231136830931,-36.8685944747995,-0.554519208293641,398.425842071694,759.428570460295,754.816628750239,752.58466896374,760.318350335496,752.666957506823,764.15034303366
19,-23.6901121323754,317.050716400991,340.740828533366,-328.895772467178,-11.8450560661877,617.551199844209,894.361571155052,892.759218021529,897.437528928625,897.791912509885,883.875470751722,882.884362864745
20,6.45006081173779,83.1440201496007,76.6939593378629,-79.9189897437318,3.22503040586889,422.188302841183,767.682646344503,763.293546127039,764.009429436555,762.612509449333,773.894833595667,783.228201627004
21,8.42038219780079,39.8480691255827,31.4276869277819,-35.6378780266823,4.2101910989004,379.246937825024,727.066188722267,730.897720038629,737.685587384331,720.182655709999,738.422155572334,736.2611920661
22,11.4573976846004,-103.774368556566,-115.231766241166,109.503067398866,5.72869884230022,268.558489822142,652.348745885451,660.192671272845,647.998609267961,658.86421737264,657.896580692148,663.531486045104
23,-10.2136996080808,-87.3874861730146,-77.1737865649338,82.2806363689742,-5.10684980404039,283.723392953296,644.620572471526,639.60597536838,642.207042804832,632.745019788534,634.382536270219,650.186971250951
24,1.42462419514777,161.220626776107,159.796002580959,-160.508314678533,0.712312097573886,710.600681226526,1261.40535987209,1282.3938096262,1263.64085661256,1254.8974334049,1260.49887046579,1250.95523665519
25,12.3031708949129,24.707085782662,12.4039148877491,-18.5555003352056,6.15158544745645,1041.77821499451,2071.15251510128,2063.82419965602,2049.55122627749,2056.71893923954,2066.31319247943,2047.5994022059
26,2.05101144633954,111.894808398996,109.843796952657,-110.869302675826,1.02550572316977,1806.17625955609,3502.50872215952,3501.08844507084,3502.08751867138,3495.28574985338,3505.38865932496,3509.7968199813
27,-10.7020858861797,-297.397896651441,-286.695810765261,292.046853708351,-5.35104294308985,2661.91920592581,5610.53422261687,5630.75080638108,5613.0525486322,5625.4584504058,5624.03486799641,5632.12617252645
28,-2.99798183166422,-188.928594616154,-185.93061278449,187.429603700322,-1.49899091583211,4905.19525178826,9996.32111636101,9983.99890899932,9992.21469670555,9991.39044691474,10003.7921822483,9999.47162646457
29,-8.37276354219648,-225.814648266445,-217.441884724249,221.628266495347,-4.18638177109824,11732.9149365034,23683.271757731,23687.8787607636,23672.5747504342,23661.728174003,23707.4425325448,23707.8245880987
30,-3.73135855936562,-267.566820410517,-263.835461851151,265.701141130834,-1.86567927968281,4640.3225683065,9544.48059846414,9545.73627375165,9532.39194108534,9533.07549182919,9546.13252265114,9560.10814562181
31,-5.71887068101205,79.6177746691974,85.3366453502094,-82.4772100097034,-2.85943534050602,2660.1820019945,5235.02735863879,5246.48678698909,5238.14530449061,5233.38736213674,5244.59789014005,5234.27203439435
32,17.3275730531604,-35.8434084338078,-53.1709814869682,44.507194960388,8.66378652658022,1353.40262832411,2759.97623813519,2759.13940931504,2771.35797001925,2749.22341271929,2776.07296414874,2763.83260302382
33,6.03350871091243,-89.08079622066,-95.1143049315724,92.0975505761162,3.01675435545621,576.599332882761,1248.31297069709,1240.13984946272,1258.73474402819,1245.8593128036,1253.19484397583,1252.3348356015
34,-4.64122976540239,-69.3754236375098,-64.7341938721074,67.0548087548086,-2.32061488270119,147.402370481723,359.538934835553,379.429381976981,368.073623282224,374.918146293756,367.665394787764,368.994889724796
35,3.67316656711046,117.124986546871,113.45181997976,-115.288403263316,1.83658328355523,20.2918031318404,-72.8682137160795,-68.2748743257544,-57.8452675862936,-67.6179645035591,-74.6630482113978,-72.4877595281869
36,-4.92773312228383,51.0550832076406,55.9828163299244,-53.5189497687825,-2.46386656114191,-24.292304809991,-104.567425949906,-100.809543217445,-108.766710665921,-109.21040558489,-110.154651374614,-105.792694405653
37,2.1559000936395,-87.7578838744375,-89.913783968077,88.8358339212573,1.07795004681975,-132.870249169981,-175.826714371884,-192.906359706307,-181.753318253643,-194.856854269514,-188.969239776721,-188.465554682421
38,-3.35986479881103,-65.8306391192891,-62.4707743204781,64.1507067198836,-1.67993239940552,-137.414249172813,-212.357724025147,-207.508039163367,-215.070637582714,-218.049973541813,-206.375479989249,-212.660103278031
39,5.77418652674533,91.1865295650496,85.4123430383042,-88.2994363016769,2.88709326337266,-4.30374163162196,-94.0198263015482,-95.4963673542952,-93.2376126869058,-99.8235276750347,-107.387331314996,-92.9115871810936
40,10.8388688404812,-10.9965801516664,-21.8354489921476,16.416014571907,5.41943442024058,-93.0827218515333,-164.329994710919,-175.296926704701,-183.559777265385,-163.142214162275,-174.389512974973,-168.746604575164
41,-9.26796457817545,-55.4709455402626,-46.2029809620872,50.8369632511749,-4.63398228908773,-121.335082125879,-196.467183289671,-188.375741476688,-187.16595341271,-194.329635612434,-191.569789922622,-192.03634347042
42,-0.159427738952218,3.80326748645166,3.96269522540388,-3.88298135592777,-0.0797138694761088,-79.4928602260625,-162.948415677529,-159.539669077232,-148.554221627215,-159.268240487261,-152.505778869876,-160.785860697943
43,14.2610235775064,29.3510202952602,15.0899967177538,-22.220508506507,7.13051178875321,-62.2454564703803,-139.580909658514,-131.483479600836,-146.303509625723,-151.722377405065,-143.830043824099,-145.80270996035
44,-12.593183767196,157.900593983417,170.493777750613,-164.197185867015,-6.29659188359801,38.954792343502,-92.5841930636088,-71.443140598567,-82.4759485238174,-74.1376567215775,-66.0013706492609,-80.515978996933
45,-12.4300259474257,80.3149864152656,92.7450123626913,-86.5299993889785,-6.21501297371287,-16.6351972261909,-126.015406815073,-132.029022036761,-134.97991098091,-144.532916687487,-135.961634880223,-137.491543067736
46,-2.15271575161023,35.4438686165959,37.5965843682061,-36.520226492401,-1.07635787580512,-81.3300607974379,-200.256705963082,-215.011739158595,-206.656809862412,-203.121624548337,-208.376117258216,-199.062214498525
47,8.79302463281783,-19.8396588827891,-28.6326835156069,24.236171199198,4.39651231640892,-125.457522228113,-222.282360940619,-243.781138957012,-231.136120999057,-218.924911031296,-228.725267039961,-233.001258296572
48,5.81170428032056,60.2741669306997,54.4624626503792,-57.3683147905394,2.90585214016028,-80.2492142707633,-214.960891191906,-222.412722808862,-217.168458029104,-224.818430114217,-223.276521807129,-228.001825121552
49,-9.43347422868828,-94.682434751594,-85.2489605229057,89.9656976372498,-4.71673711434414,-184.33220165284,-283.415442782774,-267.598482843314,-271.111423979339,-275.273297007021,-290.159545122006,-271.973609321838
50,-7.13303248153534,-4.94385025117663,2.18918223035871,1.37733401040896,-3.56651624076767,-131.84706363955,-265.88330950946,-275.370132737706,-262.646231256047,-262.215228415647,-278.412542616628,-263.50320567016
51,9.13168791800854,26.3514215871692,17.2197336691606,-21.7855776281649,4.56584395900427,-104.410260642369,-226.040254953899,-226.864760006196,-227.904815061513,-220.574514012929,-227.590724352282,-233.106717931427
52,-8.44992870261194,50.9073434567254,59.3572721593373,-55.1323078080313,-4.22496435130597,-78.9354596287594,-217.228191416856,-226.379721142264,-214.915742180776,-225.424754034611,-204.035757705482,-214.896050965996
53,2.80059812782565,101.762134879682,98.9615367518563,-100.361835815769,1.40029906391283,-47.4893167702539,-193.940170292364,-216.188760157354,-219.204937716073,-211.599419297243,-208.47668950932,-211.565615210275
54,0.562736690684687,103.729713471548,103.166976780863,-103.448345126206,0.281368345342344,-41.9218576073763,-187.010691995616,-182.814439180045,-186.765095021314,-177.617373380548,-177.627367343986,-183.160723212932
55,1.73779748938978,47.4599974286393,45.7221999392495,-46.5910986839444,0.868898744694889,-98.8980719862448,-243.518343911739,-234.686858371046,-241.917481155368,-255.973544673034,-248.073190772004,-252.176394213369
56,-8.58932710907538,122.145184102614,130.734511211689,-126.439847657151,-4.29466355453769,-52.3061100403866,-235.346731292462,-232.63455865244,-217.567767171829,-227.0924572855,-224.217746776179,-217.771490035142
57,-7.89084888171055,-25.8696784740896,-17.978829592379,21.9242540332343,-3.94542444085528,-189.539732020246,-361.100634448114,-362.359411681711,-354.009685433906,-343.132009317429,-348.041922555974,-351.847280199989
58,-3.00915066036396,-2.06447775996639,0.944672900397563,0.559902429784415,-1.50457533018198,-158.504954698801,-317.954582298,-312.404925117124,-318.370388135139,-330.734104880394,-320.202785481495,-325.971370090003
59,4.33514419212588,-57.3702548293222,-61.7053990214481,59.5378269253852,2.16757209606294,-222.556397973531,-383.407396925613,-386.517463433498,-383.546096050879,-364.285011963133,-381.530209028075,-371.576514137472
60,-2.78427275671856,-89.0994531542819,-86.3151803975634,87.7073167759227,-1.39213637835928,-221.012812407993,-355.710444418422,-351.406997186044,-353.421191382164,-359.757070594904,-352.333348069602,-351.330391681317
61,-1.60937288266723,69.1174512853904,70.7268241680576,-69.922137726724,-0.804686441333615,-135.851477966455,-342.429780100967,-348.350262842927,-343.481549750431,-344.2132642816,-340.056724125228,-348.203382481472
62,6.67953124255291,129.459104048001,122.779572805448,-126.119338426724,3.33976562127646,-73.6724873542262,-270.1245475139,-275.538621746353,-271.776859089034,-277.522484964895,-276.294517085655,-273.03241202276
63,1.7840217979392,39.6788282421476,37.8948064442084,-38.786817343178,0.892010898969602,-154.072220389979,-346.039247224166,-357.295962503995,-356.777441377548,-335.302654249885,-348.270399771136,-353.033895116823
64,-0.687832546391292,-318.754373493983,-318.066540947591,318.410457220787,-0.343916273195646,-416.866435056378,-515.666329165164,-492.506483814854,-518.279884563846,-496.881129878428,-508.100488607073,-512.598230403353
65,-3.43846518106875,-572.262753044779,-568.82428786371,570.543520454245,-1.71923259053438,-614.19264941533,-659.561010966951,-653.813750791014,-655.00609246167,-654.439104123769,-649.421395681245,-658.525569444435
66,4.85528943513054,-99.4195197850349,-104.274809220165,101.8471645026,2.42764471756527,-270.346948480626,-436.419087741087,-438.925841379445,-432.797306986555,-446.232815476804,-457.566257510451,-447.398504737328
67,8.02794188162079,-80.4290154724731,-88.4569573540939,84.4429864132835,4.0139709408104,-262.198466819827,-435.939976285561,-436.835009246628,-447.072861129564,-438.535517963668,-443.267324081535,-444.178086556203
68,-4.30023041300592,-198.030762907321,-193.730532494315,195.880647700818,-2.15011520650296,-348.7316521717,-503.732771849085,-502.37015831098,-501.369842083717,-504.093874396698,-493.944755260018,-505.099017224769
69,-0.552919502137229,-37.0106763526273,-36.4577568504901,36.7342166015587,-0.276459751068614,-240.230282094053,-444.002807337616,-447.151660568808,-441.166711748607,-444.417317894666,-444.846793358913,-434.230796169984
70,7.73940416635014,32.8660618992872,25.126657732937,-28.9963598161121,3.86970208317507,-184.974973769757,-395.07660527245,-369.95127006722,-400.172339394776,-388.82409879248,-380.778344537015,-379.32636236606
71,3.31408316467423,40.7252136535244,37.4111304888502,-39.0681720711873,1.65704158233711,-167.535737909304,-372.482606307458,-375.678707983316,-381.36760654769,-377.758449541609,-382.296027920675,-376.775777197763
72,6.90389205422252,-34.2867589109519,-41.1906509651744,37.7387049380632,3.45194602711126,-238.708318801029,-436.225986636884,-445.178722651355,-427.690582957992,-434.925379535474,-431.058510311064,-430.018461507309
73,7.70739257117384,42.9519457310089,35.2445531598351,-39.098249445422,3.85369628558692,-176.334522477773,-387.913598115381,-393.489326315379,-385.436999762373,-383.067997050413,-383.610236514622,-382.032017587131
74,-13.7179769685026,138.221540427359,151.939517395862,-145.080528911611,-6.85898848425131,-907.413565617622,-1966.76664863111,-1957.98141805572,-1955.94218320964,-1959.56726075054,-1977.72898499967,-1978.30505489928
75,13.1843445798149,-14.7865903844067,-27.9709349642217,21.3787626743142,6.59217228990747,-2441.40514655923,-4854.83935815425,-4854.42119462873,-4851.66355197586,-4845.50422082559,-4865.04124441926,-4858.34003775325
76,1.47333313981653,196.509338012518,195.036004872702,-195.77267144261,0.736666569908266,-4558.17176820702,-9311.37954128673,-9315.96686654611,-9308.10263144886,-9311.00697007426,-9334.95226917532,-9316.26548176678
77,-5.80913085860084,77.2730150626157,83.0821459212166,-80.1775804919162,-2.90456542930042,-8443.9037021223,-16970.8895501658,-16991.7611319544,-16962.3238619035,-16960.9988081877,-16994.7969665127,-16983.1732897128
78,-3.74360130762216,279.665542660718,283.40914396834,-281.537343314529,-1.87180065381108,-15331.7208229605,-30946.8507898893,-30963.5157991149,-30928.4217881941,-30904.1059618071,-30955.6655023988,-30967.6059318811
79,-12.4620552798151,593.654622693924,606.11667797374,-599.885650333832,-6.23102763990755,-37168.6187524889,-74943.3541829515,-74967.0853431602,-74904.8459180135,-74854.2478878614,-75000.5447934611,-74977.6933640621
80,8.52714767534053,377.642907167232,369.115759491891,-373.379333329562,4.26357383767026,-15490.330653779,-31349.7770670499,-31374.5656445565,-31332.5200902737,-31327.1395397323,-31376.8013993709,-31379.0081534529
81,-4.70644040306797,184.97051914339,189.676959546458,-187.323739344924,-2.35322020153399,-8719.33770537451,-17628.3523702955,-17630.7901358253,-17633.8063294563,-17599.0782558839,-17638.2089300891,-17635.1351022219
82,-15.2325648148544,185.712084611558,200.944649426412,-193.328367018985,-7.61628240742721,-4983.20097867117,-10167.3466067688,-10165.2750284904,-10144.3991609227,-10135.6922607339,-10156.775934533,-10165.9978872523
83,-5.29757003745181,207.578847187746,212.876417225198,-210.227632206472,-2.6487850187259,-2704.64349672888,-5622.16341068296,-5635.5896932593,-5629.16292033897,-5620.03507773238,-5631.2499165324,-5636.08007450885
84,1.06686253624503,-5.21263254524092,-6.27949508148595,5.74606381336343,0.533431268122513,-1508.21808797044,-3010.15668085939,-3002.28837735209,-3001.95384702826,-3007.89329673295,-3012.75677653556,-3008.76663654583
85,0.254994248272851,-10.8008500168798,-11.0558442651527,10.9283471410163,0.127497124136426,-714.021610705939,-1416.98737714672,-1407.00291998763,-1401.76163865579,-1389.12348684962,-1405.12414752535,-1406.80997228989
86,-4.94341279286891,-7.13748664894956,-2.19407385608065,4.66578025251511,-2.47170639643446,-727.09028491583,-1451.98649597558,-1455.67086061425,-1446.95250223376,-1440.43489502539,-1444.97342203886,-1461.55452410673
87,5.72702219738858,-181.838940602436,-187.565962799825,184.70245170113,2.86351109869429,-845.892571932185,-1504.21918106455,-1498.29315874289,-1503.83802647723,-1509.25468852714,-1505.92379035737,-1506.87612220476
88,-2.33300624409458,-6.22106722919852,-3.88806098510395,5.05456410715124,-1.16650312204729,-707.065649178112,-1410.24323737112,-1401.38345518234,-1406.4091063347,-1409.49371847959,-1402.23799504322,-1402.75836986367
89,7.02244308657828,-49.3229019694263,-56.3453450560046,52.8341235127155,3.51122154328914,-749.073752976401,-1441.8021608968,-1452.72452426801,-1462.69977001628,-1453.42370434842,-1463.64642688329,-1452.97395045275
90,6.87756065960275,-85.5397004382976,-92.4172610979003,88.978480768099,3.43878032980138,-776.152140840175,-1459.88702058245,-1456.91021199644,-1466.13109386602,-1455.35856009455,-1466.15040166437,-1449.31417166206
91,-9.64226139007951,19.4507023070473,29.0929636971268,-24.2718330020871,-4.82113069503976,-672.377864592054,-1373.84869288123,-1365.82272891916,-1357.10276088663,-1375.56863254661,-1365.77706704693,-1366.39853310652
92,-0.897268031403655,-26.9308395266708,-26.0335714952671,26.4822055109689,-0.448634015701828,-711.087989752225,-1396.14240800918,-1413.07244262696,-1395.42551961238,-1394.39315113766,-1409.68237003728,-1415.50193470117
93,-10.4360011441167,5.82961662419257,16.2656177683093,-11.0476171962509,-5.21800057205837,-657.072119371907,-1330.40985651212,-1321.48181281198,-1323.89222961647,-1330.13610233925,-1337.90597393468,-1337.29645404703
94,-8.87519244526629,38.2146625727473,47.0898550180136,-42.6522587953805,-4.43759622263315,-644.864797375878,-1336.81944976977,-1340.21084074769,-1322.62340503678,-1325.17049254887,-1320.19346874542,-1323.57193002812
95,4.50303551956313,-8.59891645412426,-13.1019519736874,10.8504342139058,2.25151775978156,-687.365272340918,-1361.62859270815,-1378.1983418059,-1370.40739972296,-1359.50144492401,-1365.9408597147,-1371.0923416806
96,9.17048432756565,56.1982103116752,47.0277259841096,-51.6129681478924,4.58524216378282,-629.481787945304,-1305.99130187472,-1292.11265199207,-1304.31499978711,-1293.15429943352,-1295.64452338879,-1304.36831127419
97,12.039976746164,-16.8341456443013,-28.8741223904653,22.8541340173833,6.01998837308201,-679.481191057523,-1330.08825972458,-1337.0351600899,-1335.51843936639,-1337.5719975924,-1342.20431349575,-1323.15760242613
98,-9.14607063596486,61.0734159387648,70.2194865747297,-65.6464512567472,-4.57303531798243,-608.152386881862,-1286.52426033845,-1294.96975272972,-1293.99822058631,-1294.04187536819,-1291.51938717929,-1284.82714842467
99,0.35752622646396,17.3314556519326,16.9739294254687,-17.1526925387006,0.17876311323198,-659.548517551128,-1336.07096452772,-1343.37842254317,-1341.88458495445,-1348.44350715808,-1344.57730203663,-1342.29138034809
100,9.71647076189402,-23.5094891031331,-33.2259598650271,28.3677244840801,4.85823538094701,-689.480145283902,-1345.73433070278,-1336.52119382683,-1339.79580943129,-1341.13317759678,-1340.21266005182,-1339.85255741188
101,-14.6730619655573,-117.054936211644,-102.381874246086,109.718405228865,-7.33653098277864,-730.14888246535,-1357.91589068461,-1360.66042577627,-1356.08723462393,-1354.19841524836,-1352.11578726085,-1353.90961983669
102,7.90732375232619,-18.2478055093379,-26.1551292616641,22.201467385501,3.9536618761631,-680.450127710457,-1334.74512615925,-1315.60583149115,-1326.25067577968,-1320.94660601611,-1311.48444088447,-1322.46109977458
103,2.69708123648888,-133.686729681125,-136.383810917614,135.03527029937,1.34854061824444,-751.949557963802,-1367.51530500999,-1359.85647145406,-1369.79382587163,-1365.36191077353,-1370.01523216083,-1362.180670167
104,-10.154363884154,67.22817585757,77.382539741724,-72.305357799647,-5.077181942077,-597.571328148857,-1272.52519603944,-1274.44740487519,-1278.30546822597,-1265.41274128904,-1301.80867807171,-1287.11092339052
105,7.50995839617099,25.1531665919174,17.6432081957464,-21.3981873938319,3.75497919808549,-643.396829156045,-1304.43686650784,-1305.26470000233,-1299.34610575042,-1314.74757554993,-1302.30247533551,-1321.64876660969
106,-0.781392428471008,92.1150273825042,92.8964198109752,-92.5057235967397,-0.390696214235504,-569.573973181337,-1232.04436617365,-1229.67610115645,-1231.7117283745,-1215.55791077111,-1237.54615448203,-1230.21333612371
107,10.7602886722307,-55.9525960804604,-66.712884752691,61.3327404165757,5.38014433611534,-697.00561821177,-1327.29835167085,-1340.70912692969,-1321.92873118911,-1332.7660100325,-1330.16010437845,-1319.56231494556
108,-0.0917272477236111,18.3276851329429,18.4194123806665,-18.3735487568047,-0.0458636238618055,-611.756028624164,-1241.93146962899,-1235.21304681044,-1230.32052480336,-1242.5209161235,-1252.04133056966,-1232.75979906903
109,-4.5519137638621,49.1500215533306,53.7019353171927,-51.4259784352616,-2.27595688193105,-583.476561527699,-1220.65505837259,-1225.63656685158,-1225.3551308584,-1218.32386896029,-1238.85536735758,-1226.014334145
110,-10.6141576566442,-68.9024706420605,-58.2883129854163,63.5953918137384,-5.30707882832212,-678.055277503707,-1297.822242022,-1302.36854542868,-1297.26921214626,-1293.54719277931,-1289.19187592404,-1292.15728612459
111,8.00789342925418,46.21676221097,38.2088687817159,-42.212815496343,4.00394671462709,-616.805956326585,-1271.82078143489,-1249.03554146158,-1252.72080360577,-1260.45439488522,-1255.18021317187,-1254.77730620728
112,-3.61391314273351,223.637854662986,227.251767805719,-225.444811234353,-1.80695657136675,-445.46225581599,-1118.1762794377,-1127.19662712302,-1119.54189041385,-1107.1722458388,-1117.53784945872,-1127.12996608973
113,5.87575024974649,202.899462164438,197.023711914691,-199.961587039565,2.93787512487324,-446.532757483656,-1090.089226882,-1106.02057074726,-1110.48246103036,-1107.854746319,-1104.42750240548,-1125.53111779349
114,1.40631238959031,187.179597399052,185.773285009462,-186.476441204257,0.703156194795156,-472.574863541857,-1130.92301209318,-1127.19795074066,-1135.50970840309,-1140.64980474589,-1125.97101997514,-1137.71408028621
115,-4.83325657414389,329.184629607975,334.017886182119,-331.601257895047,-2.41662828707194,-368.199375639277,-1070.41663746067,-1060.42601654556,-1057.10152065984,-1054.76058194882,-1058.53513511393,-1068.61270539992
116,9.54961405115318,298.501205022709,288.951590971556,-293.726397997132,4.77480702557659,-395.453108884569,-1079.85780874069,-1070.45780216588,-1089.72159043892,-1070.35463838771,-1074.5075704343,-1075.64818786213
117,2.76029655453749,8.55953581249923,5.79923925796174,-7.17938753523049,1.38014827726875,-604.562434701438,-1214.92410866084,-1213.02631901923,-1208.15160535907,-1221.03304559668,-1223.36094494542,-1217.74254644269
118,1.92511996868416,55.3525652076059,53.4274452389218,-54.3900052232639,0.962559984342079,-550.806979094166,-1155.04140342725,-1143.01800418436,-1144.16615829497,-1155.70673444148,-1157.67416919599,-1148.36183079783
119,3.99998202151619,-40.974066985189,-44.9740490067052,42.9740579959471,1.99999101075809,-601.494399870819,-1158.01475073493,-1167.3210647791,-1151.95780585683,-1164.50340669288,-1158.37155350615,-1171.8323890859
120,3.78885496247676,32.3352520033659,28.5463970408891,-30.4408245221275,1.89442748123838,-558.350531095086,-1145.24745923106,-1158.74944964211,-1154.28431756416,-1152.4835472542,-1148.60905335355,-1151.49402252238
121,-10.3459248393192,186.102537521976,196.448462361295,-191.275499941636,-5.1729624196596,-445.940180574835,-1088.32882351096,-1078.54552445374,-1075.02539736245,-1078.5523182195,-1094.8544932908,-1089.88977429405
122,-19.410957688553,31.077455085353,50.488412773906,-40.7829339296295,-9.70547884427651,-552.638255973463,-1155.76492472083,-1172.20687917215,-1158.48394638664,-1159.84789610974,-1163.07510745077,-1165.24416644929
123,0.380256068892777,222.664712783851,222.284456714959,-222.474584749405,0.190128034446388,-412.894960440535,-1048.07437759603,-1047.71320371423,-1050.5816115654,-1033.67579218617,-1035.85185241734,-1037.93043362017
124,-5.57888630460366,65.2940399724757,70.8729262770794,-68.0834831247776,-2.78944315230183,-511.471570500493,-1093.81606727807,-1102.57927332885,-1094.72445859094,-1086.64261710769,-1081.72131619166,-1090.07076988884
125,11.4824040561216,-15.2823472997406,-26.7647513558622,21.0235493278014,5.7412020280608,-618.686424584943,-1210.60809781402,-1205.62582473518,-1206.25375051424,-1191.34229912105,-1198.82066560487,-1195.30432918179
126,1.70699226442957,174.251414763654,172.544422499224,-173.397918631439,0.853496132214786,-518.847352302997,-1210.23912710522,-1197.26647284441,-1206.85601922098,-1201.7485553445,-1213.30969970749,-1212.57751192781
127,-7.77312945018639,97.126511148148,104.899640598334,-101.013075873241,-3.88656472509319,-681.015251313205,-1466.93014322474,-1452.59329848696,-1459.98623350385,-1456.52174124171,-1458.35484035223,-1446.83023146639
128,15.1840845282713,170.628801337356,155.444716809085,-163.03675907322,7.59204226413567,-763.532084733204,-1682.50888627549,-1684.07280211977,-1683.09854303219,-1690.42141831279,-1679.5441000009,-1671.77523545717
129,2.21327133721206,-90.8238030953216,-93.0370744325337,91.9304387639277,1.10663566860603,-1231.54148968625,-2370.04590493997,-2379.08486172155,-2374.05700208421,-2376.73570795284,-2381.41985268102,-2395.86019900395
130,7.37988557477365,29.0757362446748,21.6958506699011,-25.3857934572879,3.68994278738683,-2165.37623818118,-4352.44832703227,-4340.95962280303,-4334.39574778371,-4344.16339519131,-4349.58424449133,-4341.432377713
131,1.5026835805038,-99.8685184656642,-101.371202046168,100.619860255916,0.7513417902519,-760.23897472283,-1419.10674739949,-1428.71378679964,-1401.83137616364,-1421.26225547909,-1421.46335157478,-1423.96882250981
132,-7.07516358615248,-159.02725620041,-151.952092614258,155.489674407334,-3.53758179307624,-276.68335800292,-401.414623391582,-411.534921855986,-400.984543989587,-395.207867499586,-412.618568073201,-409.950324876118
133,-2.73661055552657,-75.131692224968,-72.3950816694414,73.7633869472047,-1.36830527776328,79.099287831923,230.593657333287,225.627997224656,217.072190426174,226.539311870263,215.158824249607,215.713444174413
134,2.83418886706932,19.3555236699176,16.5213348028483,-17.9384292363829,1.41709443353466,306.830832237771,597.140329672693,604.47914302352,590.045042425016,585.060613106092,599.77928123594,589.662737458042
135,-4.69730487879133,-30.9493488811422,-26.2520440023509,28.6006964417466,-2.34865243939566,348.169656746744,722.591357495839,710.191073014954,696.295305763721,713.814147019846,716.605822426965,722.850996353081
136,-5.37350528195384,-20.8338269151573,-15.4603216332034,18.1470742741803,-2.68675264097692,420.614646904854,856.689615442912,857.422687818558,854.532135997986,848.615800284053,881.280072847818,865.301895999466
137,4.26780056749703,51.1152985425433,46.8474979750463,-48.9813982587948,2.13390028374852,481.76246424258,916.677430510113,899.687649368076,910.21687824637,905.373228499142,904.536939573998,907.334895530395
138,-13.317772196111,-6.19759219445405,7.12018000165699,-0.461293903601472,-6.65888609805552,444.233808546633,881.347437091608,899.138080306933,891.324708809028,901.836612430925,882.143131457939,892.85785135167
139,-3.95298197251395,-34.3688441747508,-30.4158622022369,32.3923531884939,-1.97649098625698,415.463173289027,861.34220878029,861.126593105349,866.617302951869,867.343410682981,867.536760063551,863.904507866682
140,1.39461815325194,40.6590056129207,39.2643874596688,-39.9616965362948,0.69730907662597,469.749669254365,900.23495104906,888.507166687894,897.866912427126,894.190330900339,897.782729135011,889.440518827643
141,4.4027234892128,161.960987201397,157.558263712184,-159.759625456791,2.2013617446064,561.817816228184,966.077368744183,973.366235922003,954.442482998449,962.232337066351,955.296437942103,970.396628421149
142,10.0808644719946,-16.8256141831225,-26.9064786551171,21.8660464191198,5.04043223599729,414.124481623949,855.155441903014,851.697271845071,846.554581055359,849.880057729199,847.147506700829,865.599989349284
143,-11.0331771044002,-138.476044546289,-127.442867441889,132.959455994089,-5.51658855220012,341.557012473233,810.556892388355,824.381781307078,826.14181008056,814.507764301234,825.512289513717,814.872326079756
144,11.4263995435613,137.168837612204,125.742438068643,-131.455637840423,5.71319977178064,569.591739426876,1013.44104078511,1001.01327248805,1011.76017964366,987.254584508017,998.443170683429,988.865231576492
145,-3.63358232867904,77.8473494502832,81.4809317789623,-79.6641406146227,-1.81679116433952,523.097415208191,964.713898637419,974.279950736207,959.509712092724,962.903674621542,961.751836345386,974.044502891862
146,-3.41694991110126,43.5148381617037,46.9317880728049,-45.2233131172543,-1.70847495555063,505.193031704272,963.454275335738,946.227925747866,963.305121268291,978.597640404711,965.777280984679,964.803674224328
147,-1.45562124348362,-216.906071032427,-215.450449788943,216.178260410685,-0.72781062174181,310.673040842958,836.796531474858,836.183253061026,844.560114717198,845.108584113565,865.169501332013,845.632623390993
148,13.1649611024186,-105.18798673249,-118.352947834908,111.770467283699,6.5824805512093,377.588822825215,873.530593485339,888.003601108561,876.654344370443,893.030753698637,883.765966908017,881.823910716194
149,0.283428440685384,27.6705181200814,27.387089679396,-27.5288038997387,0.141714220342692,481.597615424922,935.808141170448,950.243681863765,949.061691056355,942.280897719873,955.908199030353,937.945797930792
150,-1.67571783947642,-89.5720717762888,-87.8963539368124,88.7342128565506,-0.83785891973821,389.172335976764,866.24102589034,871.872856619331,850.052741939377,858.720468317508,880.541036335111,866.52929801913
151,-6.06076840354945,-17.671641277062,-11.6108728735126,14.6412570752873,-3.03038420177472,470.748714377245,953.108301628003,932.879573101149,942.457929476193,945.676500454691,923.043108913902,939.80805600484
152,-5.70174942209269,31.2661679763405,36.9679173984332,-34.1170426873869,-2.85087471104634,476.695411580484,916.422905762534,925.35150861484,919.055391501461,917.494509812997,920.155502017064,925.930546773307
153,-5.03050708051887,-49.3403214465652,-44.3098143660463,46.8250679063058,-2.51525354025944,446.569165215406,937.448144796857,937.27641847104,949.102265381167,941.562641530036,933.651593742979,948.096488402749
154,-0.347453292779392,0.752241274632979,1.09969456741237,-0.925967921022675,-0.173726646389696,476.466877078507,951.834059589601,960.956140898663,966.926794172672,948.388838866202,954.194667786651,954.518275277776
155,0.249729585921159,20.1848551613512,19.93512557543,-20.0599903683906,0.12486479296058,500.312776419116,980.690427262802,981.370394362835,975.877349905903,956.296865646582,962.869317154429,960.544898400432
156,2.94837359554367,-84.0878698944289,-87.0362434899725,85.5620566922007,1.47418679777184,405.543711994527,898.123667479027,875.015440248302,894.972404325119,896.45822552967,897.617358760734,891.852314687712
157,7.16196493199095,-12.7471895954804,-19.9091545274714,16.3281720614759,3.58098246599548,464.002467549013,947.914089625498,947.930746717611,937.725988443592,958.057267924014,940.093539119989,950.211452814227
158,-0.0954007295076735,-44.607994922786,-44.5125941932783,44.5602945580322,-0.0477003647538368,448.995324260439,942.503242714156,931.155896790326,935.026509851217,927.068524224509,925.200732868077,930.980642983195
159,-5.69723228746443,79.9241463279177,85.6213786153821,-82.7727624716499,-2.84861614373222,549.695204120493,1013.7690296256,1028.31021565048,1016.13822679414,1012.05712416061,1034.13071166931,1025.94696872361
160,3.14566080848454,39.5626645429875,36.4170037345029,-37.9898341387452,1.57283040424227,521.283482537634,1006.14996134077,1012.07790549734,989.424086970917,992.480972424441,1002.84282699737,1014.9616805244
161,-9.23653637708048,-75.1853409264295,-65.948804549349,70.5670727378892,-4.61826818854024,421.488268343572,908.925341236492,901.234215688281,881.637686985836,899.320761365583,893.045643651276,894.998746776662
162,2.88010715381824,-35.9279341317597,-38.8080412855779,37.3679877086688,1.44005357690912,438.314630808207,915.437302901992,914.913649323949,925.162607465318,929.405593572767,923.077916187991,917.483501759503
163,13.7677960545989,-56.2052598712035,-69.9730559258023,63.0891578985029,6.88389802729944,425.270257663171,920.513571252144,924.125811323436,935.104707883351,918.919120178063,908.709804185404,935.520101412694
164,2.7407992031076,-54.4328746490355,-57.1736738521431,55.8032742505893,1.3703996015538,451.42778750365,960.029248859442,968.31777563176,953.730742000771,957.820300131192,961.265267653042,968.875251580263
165,3.33212295174599,-393.902476363175,-397.234599314921,395.568537839048,1.66606147587299,167.372152335854,731.97890398663,729.102764157986,733.239397852885,742.256521601055,740.465208278998,743.536943583749
166,-5.148156940646,-35.1148601471214,-29.9667032064754,32.5407816767984,-2.574078470323,462.890602554166,955.747908314806,953.413224236108,973.752139518969,956.482129511831,979.431095903274,952.794721444021
167,-11.986274602823,-162.602955325478,-150.616680722655,156.609818024066,-5.99313730141148,385.395444246024,921.407569214702,926.376021959208,932.849318181834,929.382978527545,921.527136773599,910.100869818998
168,19.3680600858643,-93.5964545962925,-112.964514682157,103.280484639225,9.68403004293214,398.742793248748,910.450101179653,936.329879344208,911.044851936604,918.67008686348,923.721526451875,928.218725949962
169,1.08352870173985,-13.4937186941679,-14.5772473959078,14.0354830450378,0.541764350869926,494.024884589133,1002.62701657417,981.71539921104,1006.3090806159,990.253339101502,994.213452900498,1001.35796927888
170,5.21475059175282,-65.0956042014295,-70.3103547931823,67.7029794973059,2.60737529587641,435.044813175497,940.399981144175,943.203696825076,934.346940075862,938.803334607655,939.67997088944,933.159266278351
171,1.27982857759343,-56.405609262496,-57.6854378400894,57.0455235512927,0.639914288796717,473.397314441012,1004.48006672211,1009.26240078729,1010.50208478479,1014.76794776332,1011.08896815448,1007.25446739426
172,3.22678691384499,63.7492307096545,60.5224437958095,-62.135837252732,1.61339345692249,568.204349727952,1075.88625566009,1077.84627319826,1083.02126175267,1079.37477399304,1082.31227790707,1077.26412952217
173,-4.13953105753171,-57.5840497274767,-53.444518669945,55.5142841987108,-2.06976552876586,478.672750843252,1010.79002035645,1012.96130329961,1000.85826445869,998.140592730488,994.410491112736,995.101572290849
174,-0.462487898679683,24.6869569739501,25.1494448726298,-24.91820092329,-0.231243949339841,1182.19351219613,2339.23757951963,2348.84296888171,2352.66164801861,2338.82076788344,2350.48638500698,2345.9303023055
175,-4.43504352361197,71.2586153384473,75.6936588620592,-73.4761371002533,-2.21752176180598,2364.89800222639,4654.10234559071,4664.38641341034,4652.5520380949,4650.18360831399,4653.23351191837,4673.67692010166
176,4.95852225841372,-50.3378724001523,-55.296394658566,52.8171335293591,2.47926112920686,4163.97787365507,8383.2521419687,8396.32894974749,8384.88778920774,8375.0691961071,8404.68880921154,8394.07841743436
177,-8.58268219375168,-232.095241099596,-223.512558905844,227.80390000272,-4.29134109687584,7156.7029641478,14536.9184872014,14533.7997528845,14527.6719054949,14524.4614857266,14541.9619062282,14537.8309736746
178,-7.59503567116917,-201.045036158204,-193.450000487035,197.24751832262,-3.79751783558459,12955.1229037827,26103.6958080525,26105.6561654261,26081.6265496949,26068.2497404123,26137.2038629205,26121.4254798463
179,-4.9890873071563,-726.896071633877,-721.906984326721,724.401527980299,-2.49454365357815,30789.6213012731,62301.1495868728,62299.9943289082,62254.2061750535,62207.2161082068,62336.2751576627,62329.9863777718
180,4.06195116761955,-315.455977434031,-319.51792860165,317.48695301784,2.03097558380978,12807.2152318265,25933.9483922547,25929.3787316453,25901.8146517749,25887.4567936695,25954.5040760422,25938.8118191843
181,0.432954871823313,-289.968501421739,-290.401456293563,290.184978857651,0.216477435911656,6992.63034226903,14275.6621408316,14280.4774797013,14267.7233725108,14251.585617239,14287.2873457398,14290.9501490492
182,0.438921918073902,-150.120466840424,-150.559388758498,150.339927799461,0.219460959036951,3956.6118000077,8063.78298877389,8062.13279222912,8046.80966506986,8054.64671814925,8060.47379803311,8059.08419171875
183,0.0273131028516218,-150.316783470946,-150.344096573797,150.330440022371,0.0136565514258109,2054.25979046655,4258.86367750689,4274.72687439935,4270.73733270701,4250.61338976302,4264.45780861846,4271.64857661322
184,5.34578261629213,-62.3966710641689,-67.742453680461,65.069562372315,2.67289130814606,962.350975215522,1992.44440411151,2006.93700368446,1986.20710803065,1997.450108647,2007.2630267239,1995.04075759297
185,-6.15572137670824,-42.0869905154977,-35.9312691387895,39.0091298271436,-3.07786068835412,335.694293679117,707.319856497023,691.469909332955,692.727865636785,689.75811531482,687.835403009958,694.748521651054
186,-1.57144831915502,54.6979230712459,56.2693713904009,-55.4836472308234,-0.785724159577512,402.357938474583,748.446505558764,746.454926408303,738.098733606894,753.616007583245,743.872047748853,748.482435639191
187,-0.605548941675806,102.503507283516,103.109056225192,-102.806281754354,-0.302774470837903,436.909457221103,770.709858217015,767.36425116568,785.126264341001,764.578643524874,771.827258476987,772.631785998849
188,0.213340971036814,11.0337884117034,10.8204474406666,-10.927117926185,0.106670485518407,361.210978286006,711.601509131346,725.602952902729,712.114402848325,719.949301750865,719.896519741509,712.359632605687
189,15.0812513395213,-49.056200867024,-64.1374522065453,56.5968265367846,7.54062566976063,309.640223463401,683.417899133347,685.497314250708,678.966574455582,682.479076332995,681.060693031555,687.560349161999
190,6.67525331579964,-139.404907852877,-146.080161168677,142.742534510777,3.33762665789982,242.700196948994,631.480555066664,633.224269574799,634.333249325282,640.260233689827,636.859181283537,641.418794838421
191,-1.81197231731494,-39.7825485343928,-37.9705762170779,38.8765623757354,-0.90598615865747,330.003049046994,697.976674311067,694.256781956268,700.795980147639,679.378112783452,691.011577871017,684.046811089094
192,-8.99010450500646,-100.299098438321,-91.3089939333149,95.8040461858182,-4.49505225250323,284.487688917958,660.28437176923,652.135347629606,660.886781191832,668.753149706463,653.845545740711,662.880151902122
193,4.38509641116252,38.1053593241668,33.7202629130043,-35.9128111185855,2.19254820558126,377.322798496854,720.925334080704,717.416575483658,712.698651339975,721.976478792669,716.508602871327,729.965394772124
194,-0.378702611807967,-11.2326840311289,-10.8539814193209,11.0433327252249,-0.189351305903983,338.21950465902,687.292990737362,688.625765819161,683.679634681117,682.393636418186,684.473132048122,676.443580364314
195,-0.508452197042061,-197.63333323237,-197.124881035328,197.379107133849,-0.254226098521031,192.073841041129,581.272563117585,571.630110119208,587.497024853772,584.931498217717,592.933926712372,578.110665315093
196,-5.30090869145351,-143.955575701577,-138.654667010123,141.30512135585,-2.65045434572676,241.977795001483,622.61025701309,629.208368724823,606.273866226198,609.224197755131,601.733037284925,613.677260310826
197,-4.2941917978751,13.9726835044858,18.2668753023609,-16.1197794034233,-2.14709589893755,334.036586721908,649.806298141455,643.074069599767,654.353088163421,653.899211092794,663.522788580623,666.525250376144
198,-1.93882849288639,4.23293638962787,6.17176488251425,-5.20235063607106,-0.969414246443193,-705.077307520973,-1416.32637992446,-1411.13399069794,-1412.52784528519,-1412.02720405892,-1415.33117618223,-1418.04470328195
199,3.28697075310629,284.836072826118,281.549102073011,-283.192587449565,1.64348537655314,-2349.62781144016,-4980.80472495334,-4976.93180893976,-4967.98228982932,-4975.26785062754,-4980.92083074161,-4990.81113836565
200,-5.71905031785718,208.437944654841,214.156994972698,-211.29746981377,-2.85952515892859,-5458.38867189208,-11130.9343387569,-11139.9012773998,-11132.1516043607,-11116.2591157645,-11145.7241043048,-11146.1899776865
201,12.4418807435723,321.194863619487,308.752982875914,-314.9739232477,6.22094037178613,-10446.4295493007,-21201.6120814773,-21198.4143439929,-21181.3334338224,-21171.0638957892,-21221.6301404089,-21205.9440981709
202,-3.6067528759886,577.351593079307,580.958345955296,-579.154969517302,-1.8033764379943,-19580.7543820466,-39742.4671100485,-39764.0905207408,-39708.7551404764,-39694.6914720107,-39766.036893069,-39771.3453653629
203,-4.90693509188714,1092.35034809323,1097.25728318511,-1094.80381563917,-2.45346754594357,-48617.9015940846,-98333.0604713543,-98355.5688158091,-98272.3163338774,-98199.7391969127,-98403.5110634788,-98385.3752232511
204,-11.588810685178,318.763676206378,330.352486891556,-324.558081548967,-5.79440534258902,-19994.9579235234,-40320.2683339384,-40343.2699883478,-40300.3370400573,-40284.8870552723,-40353.3839973409,-40340.0152496406
205,3.79675424814923,96.8190022094059,93.0222479612567,-94.9206250853313,1.89837712407461,-10928.6764742478,-21950.3751964568,-21961.2974005438,-21930.4587414622,-21908.5714639272,-21968.1379948562,-21950.5045610421
206,-1.60071553237503,109.195289276715,110.79600480909,-109.995647042902,-0.800357766187517,-5907.55797030919,-11925.9119454275,-11922.3208179575,-11925.7602716064,-11906.1925643198,-11924.4969730286,-11923.8232396893
207,-4.08006848959485,-223.330852407962,-219.250783918367,221.290818163165,-2.04003424479743,-3142.08441113733,-6064.91803835629,-6062.25329741961,-6078.34681344253,-6055.78765227881,-6060.64497321652,-6073.06392431082
208,8.69578238145914,43.3385225941893,34.6427402127301,-38.9906314034597,4.34789119072957,-1116.89026562143,-2268.4232714556,-2262.62629634785,-2261.77997743446,-2251.30379078278,-2268.6781179143,-2239.84185495923
209,8.67248082300648,40.9563287332421,32.2838479102356,-36.6200883217389,4.33624041150324,-47.4769861216191,-127.237820153474,-131.80287738482,-140.553696807125,-135.798112633114,-126.980171758303,-139.094957495021
210,3.28285941953072,-30.8556122623559,-34.1384716818866,32.4970419721212,1.64142970976536,-90.6923395164922,-147.246207351098,-144.309027601557,-127.826155699411,-137.908387522271,-142.891429083451,-154.734567254374
211,-14.8250120714947,22.4153306907392,37.2403427622339,-29.8278367264866,-7.41250603574736,-19.5035981561086,-76.2475390744512,-73.0921951746568,-73.1138498794753,-76.8889092671743,-76.937613201444,-83.5767175874789
212,3.72604846503236,-125.641878520342,-129.367926985375,127.504902752858,1.86302423251618,-129.664010022927,-129.960093060479,-125.963516048272,-115.420094030589,-120.697055830999,-120.346275063668,-118.129778018483
213,0.727655697875889,10.6766913750034,9.94903567712754,-10.3128635260655,0.363827848937945,-10.9729598094855,-31.8949552960985,-40.6521776965819,-36.730590218649,-44.9081002458697,-28.502527640987,-53.8577218020801
214,7.37288649892434,-61.512598321191,-68.8854848201154,65.1990415706532,3.68644324946217,-88.5128769659932,-108.140269111871,-110.169870571932,-122.282473429746,-127.954580623598,-126.207551714353,-121.432774668356
215,6.03740247970563,166.950563744816,160.913161265111,-163.931862504964,3.01870123985282,121.845679433725,82.7781976023398,68.9403479769244,76.0090441424109,81.5461053223116,76.5832543651632,86.3851486955537
216,-9.15665559534682,-145.248733032146,-136.092077436799,140.670405234472,-4.57832779767341,-111.471092742751,-86.850108048704,-71.7022477020219,-77.9752094453142,-89.5774496674712,-94.9552690204291,-72.9154128257651
217,-0.978597178269411,-24.7300892620406,-23.7514920837712,24.2407906729059,-0.489298589134705,-25.4748075285606,-27.1981229733501,-40.3778313139046,-54.6591512570449,-33.9608158583578,-37.2815471776994,-51.0189793302852
218,-1.17809592868434,-102.70819007422,-101.530094145535,102.119142109877,-0.589047964342171,-88.746321534185,-75.9625489228347,-80.00341712925,-82.4977085439023,-88.736668075755,-80.5412515037751,-70.333662287303
219,3.23578625844675,-18.2051179553091,-21.4409042137559,19.8230110845325,1.61789312922338,-5.76560146713746,9.90970127948094,25.7398865613504,25.3712045340217,23.328251953295,23.2637949131604,14.8493241560936
220,-1.19914200989297,-200.503015796829,-199.303873786936,199.903444791882,-0.599571004946483,-138.497508526954,-77.6911432669731,-68.8288968064589,-55.5969208779279,-75.2949860372755,-60.2060432409926,-75.8084447051515
221,-5.10947261870024,-31.2915144948347,-26.1820418761345,28.7367781854846,-2.55473630935012,-8.67133077073959,8.83938033465529,5.26726361495093,12.2858625027293,8.34387503511971,6.3467587971536,3.15243312632083
222,7.10783109956537,71.9453471074521,64.8375160078867,-68.3914315576694,3.55391554978269,61.1058360061579,57.3741560044291,35.0272926842154,52.2598565022927,61.8973132529645,52.0879099675803,51.3312582239741
223,-6.19915627484443,123.723509733099,129.922666007944,-126.823087870522,-3.09957813742221,670.477943723803,1211.03322143966,1205.00210962741,1210.9728897454,1218.59043584715,1202.96748006254,1218.09091968916
224,-9.02302063041134,-25.5782501034264,-16.5552294730151,21.0667397882207,-4.51151031520567,1515.21827023025,3046.99176993352,3044.00968711116,3024.46833617226,3044.07362824521,3045.24328072637,3056.64882567356
225,7.85647916933522,11.8906358153909,4.03415664605564,-7.96239623072324,3.92823958466761,3074.45222063399,6144.87028462192,6168.20514841829,6155.03907191873,6148.18284033926,6160.98680801207,6149.04233651538
226,-3.79172459672554,20.7947010906355,24.586425687361,-22.6905633889983,-1.89586229836277,5717.00550030674,11409.4245749261,11411.5708153213,11395.948188165,11389.5169350175,11418.3181856137,11412.9878198222
227,6.08154395077145,-318.141761176434,-324.223305127205,321.182533151819,3.04077197538572,10258.7115624599,20841.6464300471,20837.9744094523,20836.6211242351,20806.5485674532,20842.2062625902,20841.9324694621
228,11.4678002825822,-532.214280202839,-543.682080485421,537.94818034413,5.73390014129109,25174.6810414324,50893.0441633503,50906.7573303657,50868.0253943955,50830.9592705931,50924.861701531,50934.0407525587
229,-13.9614942360786,-272.090860138647,-258.129365902569,265.110113020608,-6.98074711803929,10572.7003756942,21403.5301172909,21417.6758353339,21398.011930236,21371.4465331743,21430.2076111033,21419.395822093
230,16.4605357297114,-116.410637893481,-132.871173623193,124.640905758337,8.2302678648557,5994.64985673,12122.1708870832,12114.9052923778,12095.730667179,12117.0230123935,12122.1988258579,12135.2850346181
231,-0.0941057814343367,21.661702841724,21.7558086231584,-21.7087557324412,-0.0470528907171683,3585.10979376829,7148.46377891343,7139.69927804288,7132.25063551191,7125.88127292279,7139.98971389307,7144.17339348709
232,-5.03044820431387,25.3781578316994,30.4086060360132,-27.8933819338563,-2.51522410215694,2048.52914314011,4066.64968024421,4076.29843252746,4059.55842415208,4063.4719736437,4075.9820768238,4063.16184314244
233,-14.1136538810679,271.719490710966,285.833144592034,-278.7763176515,-7.05682694053394,1308.37036162565,2330.90757865927,2340.35888986834,2333.90369957953,2332.88861466697,2353.08291875903,2351.09814018343
234,-0.347650125913788,123.401785031921,123.749435157835,-123.575610094878,-0.173825062956894,634.792683146967,1145.8359311361,1147.96367623381,1139.90989982864,1144.79635269457,1146.09273000003,1150.76384947254
235,12.9382947480772,72.6613583733269,59.7230636252498,-66.1922109992884,6.46914737403858,592.479683668367,1125.23630371148,1121.9145710817,1130.62037545157,1118.88471543122,1129.97509628002,1114.95155294685
236,0.491757978335954,118.919391594914,118.427633616579,-118.673512605747,0.245878989167977,655.998760253133,1193.56988688969,1185.25389050023,1187.73508781541,1191.35031541876,1177.72950998481,1181.46341017081
237,7.67879375978373,29.0707336065825,21.3919398467988,-25.2313367266906,3.83939687989187,571.733873618185,1122.07580738957,1146.21947197278,1122.80786121311,1121.20960841989,1124.19219329362,1126.81744543221
238,-4.95206813997356,-24.7388607675384,-19.7867926275649,22.2628266975516,-2.47603406998678,531.683378941729,1083.15355051102,1083.16849840694,1087.21097684099,1073.12522962247,1063.25222571296,1072.61028789901
239,-5.37519148158026,-101.943407476967,-96.5682159953867,99.2558117361768,-2.68759574079013,476.660294903035,1049.88880580146,1058.27308079394,1060.1361060366,1055.13783218031,1074.95774395484,1057.28001762059
240,-15.0801500625967,-95.9474718365818,-80.8673217739852,88.4073968052835,-7.54007503129833,494.655008673173,1070.17733912033,1055.54805371774,1057.0403131943,1056.64609673541,1060.84612527682,1057.56659760317
241,6.94581674435176,6.10740624120808,-0.838410503143677,-2.6344978690322,3.47290837217588,534.635354447979,1070.1091193991,1080.00952566208,1070.48757326585,1092.73269339025,1082.8378566138,1089.13820554243
242,0.6014068275108,16.0061366167793,15.4047297892685,-15.7054332030239,0.3007034137554,552.795853928677,1090.18697806809,1075.82484588644,1092.29621311385,1098.1411346948,1098.69488361396,1094.68203143188
243,0.0237941143277567,-4.51338108864729,-4.53717520297505,4.52527814581117,0.0118970571638783,541.243013066778,1087.02320133653,1085.30410915893,1094.74883367191,1083.69529245648,1091.5084703663,1082.73868760079
244,14.9591323178611,48.4684667263646,33.5093344085035,-40.988900567434,7.47956615893054,571.976195523937,1110.44305663937,1115.60773525672,1106.22466911381,1095.15136666858,1109.30545937095,1114.15199720772
245,2.87479500519112,15.2968283762166,12.4220333710255,-13.859430873621,1.43739750259556,545.937829441042,1079.45362551106,1085.69531871035,1087.48803853273,1099.63340614692,1081.58490581581,1090.11196633469
246,-1.70106708648382,87.6261346860556,89.3272017725394,-88.4766682292975,-0.850533543241909,599.45885820972,1109.5905146469,1110.27058141425,1104.41088869303,1098.74894077965,1109.68988330243,1102.6373166616
247,0.945298592647305,-54.9381153021241,-55.8834138947714,55.4107645984477,0.472649296323652,504.656088099946,1065.19559009466,1058.5708288966,1059.2725232892,1042.83621796124,1058.54684443705,1066.09040323194
248,1.06980802933685,140.342650417238,139.272842387902,-139.80774640257,0.534904014668427,657.413665247266,1175.55448810663,1156.11257847905,1162.36962942599,1162.90175116115,1158.93353306453,1169.80066420522
249,-11.8892519078508,51.8547868616879,63.7440387695387,-57.7994128156133,-5.94462595392542,592.568334418713,1121.39263006789,1115.16672140136,1110.4758343283,1109.63346235995,1118.05780745472,1112.66950901382
250,2.21932748990366,-7.16800181363942,-9.38732930354308,8.27766555859125,1.10966374495183,528.694042008981,1066.77541332151,1064.1657788734,1063.63567810282,1053.43020315719,1077.03588492831,1062.03359654723
251,-6.30403239023872,-91.5569025070872,-85.2528701168485,88.4048863119679,-3.15201619511936,487.422588947404,1060.09804801166,1047.63173548295,1053.43952892057,1039.04383909848,1052.5837380923,1048.64273001792
252,0.713439992076019,-181.955980807455,-182.669420799532,182.312700803493,0.356719996038009,394.493795335176,971.657011469884,976.35422844463,972.684368003422,968.480150795745,970.996883414744,981.977918351069
253,-3.0832918730448,-145.792091497715,-142.70879962467,144.250445561192,-1.5416459365224,415.707033023675,974.12286567202,972.649826712324,973.139347982738,981.577591660141,967.370543125202,976.720841488306
254,-2.24224605903146,-98.770448156487,-96.5282020974555,97.6493251269712,-1.12112302951573,456.353140601903,1009.23448330126,1017.14435166167,1023.15994134254,1014.52407135715,1005.52729820058,995.112953049655
255,10.0140535208629,-20.4493839779461,-30.4634374988091,25.4564107383776,5.00702676043147,518.679284448837,1067.82200639648,1068.31749048497,1064.28970043655,1074.64592971394,1064.13702088557,1068.30926681939
256,2.63651340367505,45.8009629862499,43.1644495825749,-44.4827062844124,1.31825670183753,564.438812543653,1085.71317550473,1110.92902936912,1089.18999035683,1094.51699569516,1095.85130290748,1096.02303577389
257,-10.247416894359,133.682046028669,143.929462923028,-138.805754475849,-5.12370844717952,644.854516593768,1145.77957026451,1143.99435307624,1159.36403227891,1139.92184126796,1158.52712059379,1149.2952065343
258,5.31963315536268,166.672838702041,161.353205546679,-164.01302212436,2.65981657768134,646.057050164512,1130.76089478235,1133.72840505256,1125.58166395349,1146.50894352418,1140.54209950054,1131.47784299721
259,-11.3854500768066,-22.9560945409467,-11.5706444641401,17.2633695025434,-5.6927250384033,512.436876789798,1036.44439804374,1041.81355239241,1042.73464136897,1036.76181835803,1041.3380524661,1050.08564925249
260,1.16474341280991,55.5857534354727,54.4210100226628,-55.0033817290678,0.582371706404956,578.368624608847,1102.31623919503,1096.8117226875,1088.21078477235,1098.60815770956,1085.15569685897,1098.34610508897
261,-2.39392961430713,-135.30426573049,-132.910336116183,134.107300923337,-1.19696480715356,422.228969574935,977.368275266053,991.025121268875,984.935540298757,985.251242869737,995.289177136699,1004.84700875834
262,14.8645949869533,-189.806984107912,-204.671579094866,197.239281601389,7.43229749347665,360.944104372247,926.55978783936,917.349508556887,933.774994555832,933.454979475209,930.302208871144,924.866971054929
263,11.7767746697646,-40.9880336667993,-52.7648083365639,46.8764210016816,5.88838733488228,492.5007991944,1037.76640672536,1034.00318212551,1036.73591226683,1041.89526740657,1030.51736811973,1019.39259355434
264,-5.49960511090467,29.9286421241995,35.4282472351042,-32.6784446796519,-2.74980255545233,543.918753689533,1052.40926014396,1045.20010565934,1041.59178052226,1035.18969874782,1045.77686431943,1051.66337974614
265,-12.0225899751531,-33.5624869288004,-21.5398969536473,27.5511919412238,-6.01129498757655,486.060027591418,993.659952136484,978.557365279965,989.42951057569,989.38672173259,973.203256863577,1005.07444767587
266,-1.87849686772097,87.2245591664978,89.1030560342188,-88.1638076003583,-0.939248433860485,584.083254977653,1079.06345392109,1082.89309396059,1092.19230244868,1073.06979195017,1089.19641357788,1060.76082310174
267,-8.51535363643779,0.892558171937708,9.4079118083755,-5.1502349901566,-4.2576768182189,526.781904640782,1044.15589747319,1055.26156020694,1042.79909590178,1035.15881620924,1038.04595761988,1039.68362634754
268,6.4240286842396,-50.8208660840755,-57.2448947683151,54.0328804261953,3.2120143421198,475.372046238641,1007.9889872456,1025.86919307982,1020.85428337313,1022.22525576098,1034.51810688572,1013.78511290575
269,4.14847257593647,122.547537775477,118.399065199541,-120.473301487509,2.07423628796823,609.375576959472,1100.3520887194,1106.6397552884,1092.15708301766,1108.6006812838,1106.48493536105,1111.33556054332
270,0.800959430955118,-107.739258669579,-108.540218100534,108.139738385056,0.400479715477559,432.529240303644,973.598698707821,964.0949265401,978.280161293398,981.293175119499,990.610074465658,976.777317505883
271,3.03148455717019,256.8390648489,253.80758029173,-255.323322570315,1.51574227858509,710.11383377068,1166.42008724963,1154.44563632115,1156.74862828461,1167.88052708947,1160.65590203667,1156.96583268841
272,9.04204727866454,73.2529349439137,64.2108876652492,-68.7319113045814,4.52102363933227,559.253768127295,1054.29664858934,1051.15872905488,1054.4514066822,1032.0825756444,1029.83633270004,1061.12510352538
273,-8.53005446612951,40.4629569152312,48.9930113813607,-44.7279841482959,-4.26502723306476,1025.02454074239,2001.05607010343,2001.72893306857,1985.68305657312,1988.60448745359,1989.83788848529,1992.15193048248
274,-5.78250751958694,153.026688358455,158.809195878042,-155.917942118249,-2.89125375979347,1928.24334164108,3697.67748740411,3717.99691969558,3715.36761312041,3707.46976570648,3715.04221243132,3706.03442415179
275,-0.389176398137352,-67.6684052135097,-67.2792288153723,67.473817014441,-0.194588199068676,3119.60095057941,6306.48112997419,6303.1808006377,6305.10014971159,6299.43781259711,6316.26728188249,6310.61724140303
276,-6.90016596388887,-45.4408072287915,-38.5406412649027,41.9907242468471,-3.45008298194443,5397.96283913152,10834.4663195279,10835.644484897,10823.8646136496,10825.1067387259,10845.693119436,10831.2135883326
277,0.891970100637991,-21.7382409842685,-22.6302110849065,22.1842260345875,0.445985050318995,9607.53801190801,19237.7062349009,19257.5098125816,19235.2117875149,19218.3329700723,19267.6543352086,19263.6861232412
278,8.9580949593219,-418.132734867977,-427.090829827299,422.611782347638,4.47904747966095,22471.5597070735,45370.2102439742,45375.2002084664,45321.4478062974,45295.5422910958,45400.2525384054,45388.0117844438
279,9.44837788448785,-203.775504202902,-213.22388208739,208.499693145146,4.72418894224393,9293.12299970354,18799.4698814945,18798.2246909147,18782.1175209463,18767.4519100655,18803.4646605363,18812.7880752746
280,7.72674559755251,-175.724846589932,-183.451592187484,179.588219388708,3.86337279877625,5074.63841788223,10332.728427952,10331.9207542153,10315.3174244381,10310.2019406929,10331.367781415,10331.6623355135
281,-4.90731660931488,-155.192130766925,-150.284814157611,152.738472462268,-2.45365830465744,2799.22322569895,5748.73126555551,5750.95395159017,5750.67021501772,5742.13155309341,5756.38961211545,5746.79712659551
282,-4.00455982293352,-122.111509966198,-118.106950143265,120.109230054732,-2.00227991146676,1441.86806385851,3001.84307786028,3019.30510324682,3006.899471999,3020.08602521787,3018.70507535673,3006.17856478484
283,12.1859724910755,-370.313221768447,-382.499194259522,376.406208013985,6.09298624553776,397.45035725426,1177.39990876804,1169.06568014223,1187.65739420781,1178.55249090132,1179.55095645093,1188.86744401243
284,-2.91659428394632,-262.566991135769,-259.650396851823,261.108693993796,-1.45829714197316,-10.6401505625254,238.370095726772,248.490080731979,245.660538908734,241.41936881232,232.25341287686,238.464598645485
285,-3.2356169661507,-286.777880110574,-283.542263144423,285.160071627499,-1.61780848307535,-10.0054470951145,263.531368954194,267.219571591413,246.652008025383,262.364233015222,251.934978594916,252.015067180007
286,-0.403113122767536,-104.443308975227,-104.04019585246,104.241752413844,-0.201556561383768,105.271005086746,314.582206025952,308.186453016067,321.718657903344,313.983757648792,323.091396133852,331.617344958038
287,-10.8181779200095,-62.5060738452012,-51.6878959251917,57.0969848851964,-5.40908896000474,149.522041553835,350.731979032862,343.827899228461,351.257353444322,346.338989736512,343.846390682011,349.914028166648
288,6.27593161599361,-93.3011006459128,-99.5770322619064,96.4390664539096,3.13796580799681,97.9073705183546,295.391773298616,310.784830573975,302.981497650093,293.279507505096,320.850908583001,307.484630802122
289,-1.96498370784684,-112.291491186916,-110.326507479069,111.308999332992,-0.98249185392342,114.485728256041,339.29796399115,332.88334814852,349.049365848623,334.178921736951,331.525095516525,347.280124970857
290,2.0956330592162,38.9970778974821,36.9014448382659,-37.949261367874,1.0478165296081,218.926392834284,400.951340830303,400.406168981746,395.688506511884,400.219155053259,390.880912317749,399.418890802335
291,-1.53209147878806,4.92434309946839,6.45643457825645,-5.69038883886242,-0.766045739394031,206.01391392287,405.571393267484,414.717207761336,415.052095100953,400.674236923631,425.703935664264,396.703880855552
292,-1.08211625710828,-72.1350184137991,-71.0529021566908,71.593960285245,-0.541058128554141,124.974121037681,321.001144232054,312.403615282761,307.629538647656,305.032668978034,310.107332086191,317.862956477387
293,3.59560902570956,166.135737836914,162.540128811204,-164.337933324059,1.79780451285478,299.876386051939,437.212643292674,444.884991680126,434.441242809233,460.645695533924,439.635044334136,450.785676098574
294,6.44991251491592,140.181165382004,133.731252867088,-136.956209124546,3.22495625745796,279.072560949789,424.413869032491,419.490839561564,415.463213268697,432.496886919864,415.304063053016,426.609956071101
295,6.58323661054601,194.58724431516,188.004007704614,-191.295626009887,3.291618305273,318.377340556632,448.750673408649,454.82278206019,451.738726912241,440.954489104013,445.877318602288,444.269185808778
296,-3.38920622921432,-46.4728703460714,-43.0836641168571,44.7782672314643,-1.69460311460716,144.496843211498,332.077350539854,336.829277091718,323.458469599223,325.287011899869,329.393014189438,311.692698462866
297,0.930231601640116,63.9528861172439,63.0226545156038,-63.4877703164238,0.465115800820058,-768.152370265496,-1599.3273950466,-1618.39299970435,-1590.85488791295,-1606.17916434837,-1608.30778577225,-1599.45253438159
298,-11.4205415530305,28.7031012836378,40.1236428366683,-34.4133720601531,-5.71027077651524,-2520.36344976675,-5080.85054237017,-5078.95565725697,-5083.727081947,-5080.9884768289,-5071.97999427974,-5090.86530433717
299,-1.22267008505878,120.85206218352,122.074732268578,-121.463397226049,-0.61133504252939,-5320.16748659147,-10762.4097054515,-10763.1642093456,-10761.6756622375,-10748.0707794245,-10771.8620709611,-10770.9795261104
300,4.98854762359406,145.998335477954,141.00978785436,-143.504061666157,2.49427381179703,-10042.866652927,-20226.7430937084,-20212.5548533548,-20203.5028270168,-20193.9663327629,-20229.3518990223,-20229.4539009161
301,-9.97618862547097,504.115391283267,514.091579908738,-509.103485596002,-4.98809431273548,-18515.8606394635,-37545.8128588356,-37556.6752241074,-37524.9636688994,-37480.0196296104,-37577.941909678,-37569.4160327851
302,5.93159632402239,1527.35921086749,1521.42761454347,-1524.39341270548,2.9657981620112,-45298.1803811405,-92117.7883768245,-92118.0871059273,-92036.6985260307,-91992.7145483775,-92157.919894375,-92148.6927729212
303,-5.51008410990471,460.987762498902,466.497846608807,-463.742804553855,-2.75504205495236,-18977.7590252791,-38422.0158971671,-38444.6211459871,-38401.4110472788,-38393.4283404358,-38458.8624250238,-38454.0039674457
304,3.04124508635141,413.431276782969,410.390031696617,-411.910654239793,1.5206225431757,-10464.1127539527,-21338.6155396021,-21385.5376907184,-21347.5557803589,-21329.0541121277,-21373.9888342178,-21355.2224276337
305,8.35556502197869,174.775674343837,166.420109321858,-170.597891832847,4.17778251098935,-6005.50322976656,-12177.426568855,-12185.5278151202,-12163.2319710506,-12151.8623616129,-12176.8126906125,-12172.1154042911
306,-6.78690011051367,-4.32735820734524,2.45954190316843,0.933908152088407,-3.39345005525684,-3332.91844121154,-6668.29642432625,-6669.82167997118,-6658.13127207098,-6653.61377249888,-6667.62999203699,-6672.51557593778
307,-12.9981125660997,-118.252206209814,-105.254093643714,111.753149926764,-6.49905628304987,-1697.32260997174,-3289.39112629977,-3275.65223278757,-3279.25845816778,-3268.52570549207,-3280.9892332936,-3281.83228120359
308,8.39334465772845,153.037940008071,144.644595350343,-148.841267679207,4.19667232886422,-523.809692252049,-1192.26397985444,-1187.40289539995,-1176.06210932028,-1182.7425466963,-1193.03262126559,-1185.93434918992
309,2.82123083551414,129.566109570034,126.74487873452,-128.155494152277,1.41061541775707,-525.178739707146,-1177.10235814881,-1175.63927218973,-1167.26142774196,-1174.45963372313,-1172.13492354593,-1173.78749913591
310,-11.6585107946303,9.20575635830755,20.8642671529378,-15.0350117556227,-5.82925539731514,-600.764082484646,-1222.39243212223,-1236.00995906218,-1240.9501433812,-1235.58748389693,-1246.46441168973,-1231.51474984558
311,1.88859633213724,-25.650606898329,-27.5392032304662,26.5949050643976,0.94429816606862,-644.345005053183,-1261.1508068759,-1260.43149149069,-1259.90190174271,-1260.7865122651,-1257.25130443717,-1263.81872776107
312,-3.19275517191272,19.4622804319079,22.6550356038206,-21.0586580178642,-1.59637758595636,-597.69269266467,-1218.04042093316,-1215.64533617385,-1210.27444585582,-1212.81584103138,-1222.28633474139,-1221.68734140103
313,9.46412999444874,-30.5574438994518,-40.0215738939005,35.2895088966761,4.73206499722437,-652.14426899617,-1264.26696409844,-1248.2095485373,-1268.50910235001,-1244.56688083764,-1242.31416758636,-1263.17980729855
314,4.96907513192855,-67.0186002445407,-71.9876753764693,69.503137810505,2.48453756596427,-647.437633658323,-1222.88759194018,-1249.63311439331,-1236.35189725287,-1241.22107569478,-1240.52063184709,-1247.75466614318
315,-0.49961779487785,131.194459689897,131.694077484775,-131.444268587336,-0.249808897438925,-504.688766327105,-1141.07161013898,-1145.46005131066,-1154.30984536669,-1144.43047220554,-1134.50555630572,-1139.14861562176
316,3.66092195242527,-10.8005277340999,-14.4614496865252,12.6309887103125,1.83046097621263,-609.824660263737,-1205.18787084095,-1197.52496183998,-1204.35776193874,-1198.50056295856,-1205.11546508479,-1201.62280930669
317,2.12149650618085,-11.1339302589477,-13.2554267651285,12.1946785120381,1.06074825309042,-602.218739306089,-1191.18205184705,-1190.57058088502,-1194.81639450009,-1179.50512422144,-1191.71430981619,-1187.06167835757
318,-3.91379817813868,-176.107082900184,-172.193284722045,174.150183811114,-1.95689908906934,-710.941731985309,-1249.69017924857,-1249.06758173057,-1254.83972159712,-1247.77493901941,-1250.82846066105,-1238.92575567059
319,-0.434098787256517,-125.095934234123,-124.661835446866,124.878884840495,-0.217049393628258,-674.970909698895,-1225.27998395092,-1212.73959425883,-1215.89036978473,-1226.35429432912,-1226.76616759331,-1216.93185090757
320,-6.74074195153662,-106.320778543915,-99.5800365923787,102.950407568147,-3.37037097576831,-646.030058514269,-1192.48008043616,-1195.29712572231,-1182.91912547406,-1207.30064094765,-1201.97924946409,-1191.78287188616
321,0.246038702782243,-206.141398543696,-206.387437246478,206.264417895087,0.123019351391122,-711.43299720643,-1216.47855716638,-1207.42930131222,-1207.70453086362,-1218.51110443842,-1213.67344450115,-1225.60113455265
322,4.20550570395426,-513.389115471102,-517.594621175056,515.491868323079,2.10275285197713,-934.141454457655,-1350.68828774025,-1357.03337916179,-1355.04384451421,-1358.51781741082,-1352.27849344656,-1348.12947193446
323,-8.26725911223912,-171.293412355502,-163.026153243263,167.159782799383,-4.13362955611956,-649.804453762787,-1136.58275428231,-1152.31556514793,-1150.68767297818,-1141.95448642748,-1128.99314764628,-1156.06407204
324,-4.05212260520784,-160.328247018449,-156.276124413242,158.302185715846,-2.02606130260392,-574.992328495937,-993.708532578632,-992.496545067086,-992.658361157984,-987.958243192203,-983.63510969482,-1004.23931887708
325,11.6658982458175,220.49098146116,208.825083215343,-214.658032338251,5.83294912290876,-231.895465574009,-672.616014363361,-651.381053866062,-647.978675096732,-652.359425682953,-657.182990010711,-660.305832867627
326,-2.91096736773034,261.52928055622,264.440247923951,-262.984764240086,-1.45548368386517,-30.1932683453633,-324.826784614677,-341.462569714029,-331.110501922783,-328.385252126609,-342.13994576814,-344.135664834088
327,0.395944614341715,174.500442127988,174.104497513646,-174.302469820817,0.197972307170858,263.851252174369,353.598006835091,337.372914853884,357.960513407917,353.318970409688,351.248427656421,355.095957332524
328,17.2637881595292,-49.0785512300208,-66.34233938955,57.7104453097854,8.63189407976461,232.442869850071,531.228079089691,540.048637186235,523.58064701478,535.510925716866,519.375502377574,531.931721448636
329,-5.26830602664268,-98.809996018681,-93.5416899920383,96.1758430053596,-2.63415301332134,299.226624901537,691.994939795113,688.568565150199,700.454661822354,696.015345366119,692.35849739355,691.866478741897
330,8.67412020769552,9.04483503187657,0.37071482418105,-4.70777492802881,4.33706010384776,454.788149020242,909.205583216302,912.788351132447,884.349575048604,889.113218714338,894.620542736957,906.864433900628
331,-3.05268966138829,54.6004565443436,57.6531462057319,-56.1268013750378,-1.52634483069414,504.485626828391,951.31810745105,968.469869997993,967.092877707502,957.079168468714,960.160527134925,974.285081124777
332,-10.3473496423103,10.9725998666836,21.3199495089939,-16.1462746878387,-5.17367482115515,477.185106278426,933.050263047859,937.67194133476,930.375970508059,940.515995195601,941.759294008632,938.464092565002
333,-2.09970566176344,8.67126804593136,10.7709737076948,-9.72112087681307,-1.04985283088172,486.959582861964,963.148192016233,956.86433864967,955.633751256304,965.823100588168,949.062577376317,953.147667231708
334,-7.36971052840818,-72.8943767031597,-65.5246661747515,69.2095214389556,-3.68485526420409,443.340752505421,952.206171185593,936.93835798683,935.321594365203,942.552653404622,938.287436520972,943.652317262982
335,-2.99788678917685,-56.7066078451171,-53.7087210559403,55.2076644505287,-1.49894339458842,437.856326051595,929.42137315913,937.898384453671,947.383304788731,953.251482494437,959.45819621181,945.388978821138
336,5.36052674977691,-131.216146691557,-136.576673441334,133.896410066445,2.68026337488845,385.965467262198,908.50760796573,920.015861344931,914.716898318497,909.322093909082,903.91146898747,910.526398899936
337,-5.17881849288824,21.9260943584959,27.1049128513841,-24.51550360494,-2.58940924644412,518.356959494806,1009.60900613823,1009.30929196847,1016.57030318779,1004.80493628033,1013.47901230559,1009.9394519678
338,1.08393407249241,67.9280244933907,66.8440904208983,-67.3860574571445,0.541967036246206,550.160494151743,1033.47689788259,1037.28883518244,1028.76561114675,1036.37792711204,1029.85972721234,1031.0212798774
339,5.84682895697188,54.4983450590516,48.6515161020798,-51.5749305805657,2.92341447848594,543.833325087617,1039.01513407315,1048.69097212027,1033.46021375438,1040.10044676618,1057.64008102001,1028.48688481483
340,3.19248069243622,-18.6645485172048,-21.857029209641,20.2607888634229,1.59624034621811,464.995180532307,951.847390274255,940.628892888664,955.665205953876,937.669656369515,961.233515831351,955.594131446298
341,-20.0799957130512,-10.6971425419615,9.38285317108966,0.657144685435924,-10.0399978565256,499.414898035233,989.446942899376,973.137668572395,976.909576493577,984.113235851109,968.143143709342,985.595408753667
342,-10.3108236375847,-50.0055068232177,-39.694683185633,44.8500950044254,-5.15541181879235,465.392530468685,970.479744123004,971.170558431564,963.060025233834,964.08693470736,958.735717414907,973.048473745992
