sep=, 
EKG Messung vom 28.01.2019 19.03.50
gemessen mit dem EKG Dongle der Hochschule Luzern BAT HS18

 
 , Lead1, Lead2, Lead3, aVR, aVL, aVF, V1, V2, V3, V4, V5, V6
0,-56.10371962926,167477.853003548,167533.956723177,-167505.904863363,-28.05185981463,151875.551486474,136217.146249771,136271.366131651,136498.769166598,136426.208933299,136151.363501707,136084.303208503
1,-154.447737293027,461240.458532754,461394.906270047,-461317.682401401,-77.2238686465134,418272.808995117,375150.711720186,375299.841345949,375926.359866625,375726.763221526,374969.672371741,374785.222860988
2,-316.398186691338,943989.847423174,944306.245609865,-944148.046516519,-158.199093345669,856053.852442057,767801.459274249,768106.859681968,769389.216099408,768980.710482097,767430.921984624,767053.590204263
3,-584.208381455392,1742117.78257746,1742701.99095891,-1742409.88676818,-292.104190727696,1579837.18541641,1416972.3798739,1417536.4169128,1419902.53900447,1419148.88263482,1416288.57597404,1415592.58617116
4,-1079.06909305044,3218332.79977267,3219411.86886572,-3218872.33431919,-539.534546525218,2918545.0473329,2617678.22580008,2618719.76208693,2623091.0027193,2621698.90267661,2616414.53313723,2615128.99664145
5,-2639.97657717858,7875521.34085479,7878161.31743197,-7876841.32914338,-1319.98828858929,7141900.2966009,6405639.27576984,6408187.71731542,6418883.85552522,6415475.78338012,6402546.29882173,6399398.78715069
6,-1080.36645358149,3218254.36529402,3219334.7317476,-3218794.54852081,-540.183226790745,2918585.82338958,2617836.91503155,2618874.1191022,2623251.72847393,2621867.40076621,2616575.0715429,2615300.30719223
7,-596.36259677005,1742147.26310703,1742743.6257038,-1742445.44440542,-298.181298385025,1580028.58446576,1417313.54322771,1417886.71532742,1420249.01209795,1419494.42123344,1416623.91054404,1415935.94992648
8,-318.649284509127,943928.014234515,944246.663519024,-944087.33887677,-159.324642254564,856179.961870221,768113.260221418,768421.797374897,769690.105347296,769290.044416582,767736.910605106,767373.639807768
9,-145.094288390945,461174.453527903,461319.547816294,-461247.000672099,-72.5471441954724,418436.60117721,375553.654538127,375676.597553004,376319.366615895,376120.153725356,375355.30771768,375178.238144716
10,-64.0728052675258,167516.558180109,167580.630985376,-167548.594582742,-32.0364026337629,152135.412495987,136690.194006599,136745.121810274,136969.442189051,136885.792530787,136621.440175418,136560.719708542
11,3.38213445642032,-206.995491119917,-210.377625576337,208.686558348127,1.69106722821016,81.1537540851714,372.68513374668,383.015171472303,374.467447564617,372.997017449146,380.790357845719,386.622693541722
12,-12.2298345325689,-142.542833127663,-130.312998595095,136.427915861379,-6.11491726628446,164.665892292658,459.644783180411,483.973892741837,472.813366172253,467.304889251536,466.733070943563,466.243167994748
13,-9.90377355515375,-30.101290171966,-20.1975166168122,25.1494033943891,-4.95188677757687,260.04529525392,540.288107124652,528.576426546235,537.673218894954,537.128147563169,526.325154939084,529.407097198069
14,11.8081589700887,-95.2320250982011,-107.04018406829,101.136104583245,5.90407948504435,227.443954072733,561.928092213755,545.75154775515,549.198370400351,561.136047310691,574.840470189927,561.457156890188
15,-9.06413273300859,-106.410300322546,-97.3461675895378,101.878233956042,-4.5320663665043,235.424758626774,568.195684843085,574.30538611149,559.759907061583,571.406248482555,570.42168525586,563.241930990916
16,-1.47251296762261,5.02368085386115,6.49619382148376,-5.75993733767245,-0.736256483811303,327.15600917954,647.815824537596,644.164287283609,650.983623520064,649.020334936649,646.097937281331,659.135035866348
17,0.920310684246942,71.0553290614334,70.1350183771865,-70.59517371931,0.460155342123471,372.812170838661,675.489323300135,665.586966879084,671.719565913401,686.850990420178,662.299047094682,669.04540844055
18,12.6753156336781,50.2179010504333,37.5425854167552,-43.8802432335942,6.33765781683906,383.54172054134,729.540855665924,730.667100724269,750.675680068845,735.425671183562,745.85011610543,737.044602597249
19,-2.78186031029327,-34.4872537042829,-31.7053933939897,33.0963235491363,-1.39093015514663,339.780971753949,711.267336901888,723.178087021253,720.279464131221,721.935798672494,713.086396088242,723.302762186679
20,2.01660378460656,-54.4569840206823,-56.4735878052888,55.4652859129856,1.00830189230328,326.775917005813,710.025421816914,715.163205339602,707.050594206812,707.744253350189,702.411334367323,719.812520069128
21,-2.27927454095334,24.26209086366,26.5413654046133,-25.4017281341366,-1.13963727047667,404.631134107665,782.720902810717,774.448453933204,772.648830062361,776.660724579415,766.289517678902,765.297509170079
22,5.52015052124625,105.542088869639,100.021938348393,-102.782013609016,2.76007526062313,430.039957101297,760.057975854201,780.654933097569,773.625776035566,774.696338121663,789.92292347693,775.938597630389
23,-7.35484091212857,-78.1660443142464,-70.8112034021178,74.4886238581821,-3.67742045606428,338.469780168889,747.750763739896,749.932367652829,746.26416744609,759.774642420787,756.6074601812,749.975517747778
24,6.14975650643464,-52.3773988830799,-58.5271553895145,55.4522771362972,3.07487825321732,359.477044555795,777.481244501105,779.637433163618,772.644253128936,774.931501647719,783.858383682556,787.238321103388
25,0.613087842823006,-58.6692981703382,-59.2823860131612,58.9758420917497,0.306543921411503,1028.62350298566,2116.52939198448,2110.77066289578,2111.65473305728,2098.25254179374,2112.29427025668,2115.21657522765
26,0.912709125113906,-87.5434083060827,-88.4561174311966,87.9997628686397,0.456354562556953,2156.27957598159,4401.01526939438,4410.64569842583,4406.19078784192,4390.05692254211,4400.66011092102,4398.79898899235
27,5.16199129130109,65.4745182362385,60.3125269449374,-62.893522590588,2.58099564565055,4145.24603142818,8230.17953591142,8230.89026965186,8228.86616759139,8220.84470114516,8226.49295313199,8226.94717822943
28,-4.95861266876454,-90.0728697485465,-85.114257079782,87.5935634141642,-2.47930633438227,7115.58307176354,14316.2804006069,14327.335310791,14316.8950974874,14302.6879522877,14331.0566353217,14336.7597953753
29,-8.36113939763163,-361.89185362542,-353.530714227789,357.711283926605,-4.18056969881582,12622.9042054553,25599.3391251383,25612.3029038921,25574.9503717424,25557.3330321923,25602.3797938204,25594.4294877525
30,5.40266956595588,-816.882415982895,-822.28508554885,819.583750765873,2.70133478297794,30228.9903602853,61280.2658061194,61303.7983799884,61251.698267657,61194.6816483979,61322.1351174137,61318.8121358845
31,3.15747540938901,-409.504850727011,-412.6623261364,411.083588431706,1.5787377046945,12724.9487298961,25862.5597859286,25877.7003458668,25844.5234789614,25819.3526091317,25884.3486355425,25874.0070776332
32,-0.146275766222971,-161.878752974822,-161.732477208599,161.805615091711,-0.0731378831114853,7277.43864814867,14716.6097735059,14710.4222224993,14699.4726581434,14695.2319753165,14723.0367081556,14722.8782012141
33,-1.45804620994022,5.72939211485209,7.18743832479231,-6.4584152198222,-0.729023104970111,4363.68361673964,8720.17979515449,8711.2884898886,8708.86948939462,8706.32608772186,8728.19235444692,8712.96187039596
34,-5.45278959316784,54.4947896394297,59.9475792325975,-57.2211844360136,-2.72639479658392,2559.23063207864,5058.51368492469,5047.52514008273,5059.09544208006,5053.41018000321,5066.5572251222,5062.54172418735
35,17.9686746773659,49.8281449818169,31.859470304451,-40.8438076431339,8.98433733868296,1416.58708487952,2801.31469945458,2809.66467423912,2793.71611451232,2797.12504416113,2803.47440006791,2812.26498203527
36,0.379886459588306,79.9179798274708,79.5380933678825,-79.7280365976767,0.189943229794153,825.160269470653,1570.78244557342,1572.25407661003,1557.90406353638,1562.45057461498,1570.10954715297,1557.90256375042
37,8.21328707729117,57.4598468165204,49.2465597392293,-53.3532032778749,4.10664353864559,774.8263446778,1500.40612961637,1504.71859727346,1499.16357421453,1492.09531554757,1501.88908426141,1510.15696765072
38,0.305296932056081,-41.7849510349333,-42.0902479669894,41.9375995009614,0.15264846602804,709.410050273829,1460.91034851465,1464.01888246034,1479.79942961253,1468.03733618365,1475.52319524251,1475.82102177831
39,1.47686635772698,-51.5014310574334,-52.9782974151603,52.2398642362969,0.738433178863488,699.676803293798,1452.33190400276,1441.18011081521,1441.84731921478,1436.63081484375,1423.37726808249,1454.01456290006
40,-14.1722373910889,-220.723816740763,-206.551579349674,213.637698045219,-7.08611869554443,599.080051505327,1404.71168236033,1385.77079712867,1398.80106141133,1380.65885697398,1410.27105017391,1391.97618192926
41,1.80815347610041,16.7964282913017,14.9882748152013,-15.8923515532515,0.904076738050208,749.876163751818,1484.76405268844,1491.83049532145,1471.99839314108,1492.35842490935,1484.61966473036,1482.8860336809
42,3.22487595619168,11.923932317819,8.6990563616273,-10.3114943397231,1.61243797809584,732.977149472455,1457.25524258328,1461.32474618949,1464.09405744509,1455.35094096945,1453.09389455296,1447.62276381184
43,2.15810910545406,-33.2385008027486,-35.3966099082027,34.3175553554756,1.07905455272703,700.505920314332,1436.40845053687,1448.74114482111,1436.25388276734,1457.35719555369,1444.14392070688,1449.32511421028
44,6.74874682771042,-199.91249940687,-206.66124623458,203.286872820725,3.37437341385521,566.108012055352,1338.87727034529,1342.85233200964,1331.0226833662,1340.97291152328,1331.93467342088,1335.12875004695
45,-3.01303323113825,-87.1905588833033,-84.1775256521651,85.6840422677342,-1.50651661556913,665.620892962368,1415.4193115769,1390.926223382,1403.96841328384,1420.06450142941,1415.33149949787,1414.5646240729
46,7.88671558492933,85.7442559576302,77.8575403727009,-81.8008981651656,3.94335779246467,788.330815011563,1498.80408965042,1502.68227620077,1494.34196903283,1493.48507801688,1500.19767375293,1491.75905942908
47,-5.24329589359695,-92.9172856080404,-87.6739897144435,90.2956376612419,-2.62164794679848,618.506104528773,1324.68619877199,1327.5561088309,1347.81227613246,1340.45629433266,1356.8641958021,1333.83144518122
48,-10.1154878486414,22.8554099436733,32.9708977923146,-27.913153867994,-5.05774392432068,726.739351182856,1420.5078045734,1422.8808449129,1422.7533917533,1423.68909616908,1431.11732442272,1413.28363052566
49,1.2657147051068,-119.530411862768,-120.796126567875,120.163269215322,0.632857352553401,614.432070631112,1349.6602678301,1356.28411663743,1343.03495430973,1342.57276569726,1335.79757830946,1350.33498926961
50,5.53230207398883,-435.676385681843,-441.208687755832,438.442536718838,2.76615103699442,357.495287087921,1156.19926193167,1162.81482035166,1148.7009547131,1141.47289668254,1155.33345324054,1151.67348173895
51,-1.52347933046985,-137.170640565251,-135.647161234781,136.408900900016,-0.761739665234927,591.32880797454,1318.30477718386,1322.43757278693,1334.69008540653,1326.68536367011,1318.85045452858,1312.71723790193
52,-7.1898355857993,-69.4576969796908,-62.2678613938915,65.8627791867912,-3.59491779289965,647.752314578771,1357.77249055143,1340.02233603716,1336.8940828499,1342.02632190843,1339.36020828065,1353.9136263011
53,10.6535557186871,-73.5409773438005,-84.1945330624876,78.867755203144,5.32677785934357,606.847863517003,1297.89026009649,1331.8942339083,1318.62111825115,1305.54491649414,1315.82204311516,1323.92441362844
54,-13.0150664937391,-64.0853323972551,-51.070265903516,57.5777991503855,-6.50753324686957,618.613128481884,1288.29652286728,1278.1796040512,1281.63403079266,1292.14742216381,1301.16689117122,1292.20061669132
55,-5.30333883364801,11.5768409442389,16.880179777887,-14.2285103610629,-2.65166941682401,691.35795618371,1365.83573258953,1356.6140275849,1368.0874341359,1347.86178679523,1351.88570418549,1361.03541239054
56,9.09734715032391,60.8623227209318,51.7649755706079,-56.3136491457699,4.54867357516196,711.947843392729,1372.13071121485,1380.4784280181,1368.52284211782,1384.39692509419,1376.86481691562,1370.54170076927
57,-14.8201820142858,-29.321824596409,-14.5016425821232,21.9117335892661,-7.41009100714291,669.989843628384,1354.48132983889,1330.6628708482,1343.16946296958,1342.30843064256,1342.86771012793,1340.63443846657
58,-0.697066939232172,23.7691849335388,24.466251872771,-24.1177184031549,-0.348533469616086,699.375723506339,1374.28519513991,1370.78883691895,1378.19774441246,1381.76581737312,1380.85764879003,1363.56685294796
59,-7.71854975741007,-76.2744300524355,-68.5558802950254,72.4151551737305,-3.85927487870504,611.932153102753,1292.42018650053,1279.4598050132,1279.07997400302,1265.26609467293,1280.43572970459,1271.20631631991
60,1.73745895185857,-18.5806632466265,-20.3181221984851,19.4493927225558,0.868729475929285,642.683137847373,1305.68439789323,1322.64852882325,1325.81112419805,1317.27945591774,1312.77398001362,1315.10872997559
61,3.20970533820218,53.9086629174708,50.6989575792686,-52.3038102483697,1.60485266910109,698.972956921803,1347.24695626434,1345.10921872704,1348.91278388767,1345.24865087087,1346.16666055718,1349.14581270309
62,6.07905386594939,-21.3101375697588,-27.3891914357082,24.3496645027335,3.0395269329747,635.165571432968,1297.72033430164,1302.84223110281,1299.44489143998,1305.47774396298,1307.85590849764,1303.78724659092
63,-11.9393894879904,-58.7099650219607,-46.7705755339703,52.7402702779655,-5.96969474399521,603.175972263838,1253.12252006165,1265.79453784114,1241.26234106804,1249.72772144669,1266.43305819316,1273.20835461392
64,14.7343540130241,-93.1530178615649,-107.887371874589,100.520194868077,7.36717700651207,572.610595133781,1253.10856214215,1247.55922631981,1240.94316170181,1235.57863376901,1244.49245626185,1264.63178397086
65,9.83949694951298,-40.7355510406487,-50.5750479901617,45.6552995154052,4.91974847475649,588.338418272004,1227.25188453417,1242.24158850126,1241.74765367949,1237.84902177445,1233.10894004011,1235.86704090441
66,-6.89806425615097,-116.838375390507,-109.940311134356,113.389343262432,-3.44903212807549,549.214025823836,1208.36836278203,1191.668281208,1191.75544498107,1185.02682391336,1198.99571007813,1200.54045553319
67,-5.70686975648277,-243.395748078299,-237.688878321816,240.542313200058,-2.85343487824139,454.708971851593,1147.106822025,1160.26078944126,1156.03627220003,1150.84340054385,1154.04028856635,1152.26412314951
68,2.62443730459199,13.8109591548564,11.1865218502644,-12.4987405025604,1.312218652296,629.922627359236,1248.65873286821,1251.15061829201,1243.44507693645,1260.06008389447,1252.13963057284,1260.54568628149
69,3.62317113846075,7.28351282473886,3.66034168627812,-5.47192725550849,1.81158556923037,636.881364401241,1270.1023871162,1258.9860355072,1269.9390761269,1267.02225242381,1267.14206092464,1266.70348944684
70,-2.75952375624911,-18.2598243996617,-15.5003006434126,16.8800625215372,-1.37976187812455,613.379645452311,1242.25959154803,1231.36092079282,1231.57020509979,1236.86048848281,1238.80422625667,1225.23811033191
71,1.59493466815911,176.614258009358,175.019323341199,-175.816790675279,0.797467334079556,746.537543299375,1318.05576325755,1329.60291289672,1318.56902880716,1322.17641222372,1328.79687587323,1326.68437189495
72,5.01982688755379,38.4280479065492,33.4082210189954,-35.9181344627723,2.5099134437769,641.956277324527,1250.50433363006,1257.26102160953,1239.45668108767,1251.4884354102,1242.64108949061,1252.52027590098
73,-2.78617783123627,-78.9717613861139,-76.1855835548777,77.5786724704958,-1.39308891561814,537.528276838042,1151.24213723096,1160.47790147667,1166.90690370716,1148.88170778056,1159.90095277136,1150.59771169111
74,3.90786975892843,-70.4354261111002,-74.3432958700287,72.3893609905645,1.95393487946421,541.468294691906,1157.27988525384,1155.28233512439,1168.88818917863,1153.21315930836,1162.14266569514,1163.75956253699
75,-8.20089571585413,94.376039796829,102.576935512683,-98.4764876547561,-4.10044785792707,968.341426063111,1834.10591661354,1834.07614203577,1831.80728314878,1835.80708629658,1824.46074145843,1834.36441744716
76,0.536492276034551,-2.63027137657627,-3.16676365261083,2.89851751459355,0.268246138017275,1393.77455613148,2790.71587591557,2796.97678599312,2798.56742516588,2781.59240699804,2802.66073338193,2806.95201836454
77,-10.1716578993655,-7.55962459612056,2.61203330324497,2.47379564643779,-5.08582894968276,2222.08232992428,4441.55262654531,4452.12039003155,4438.56333420577,4449.3399837352,4443.10751687741,4436.74806111417
78,-3.67749617184745,-98.2444627437799,-94.5669665719324,96.4057146578562,-1.83874808592373,3545.37369238476,7185.31435134145,7171.78320884102,7187.14177447406,7184.67585221495,7185.7720278085,7193.87733186048
79,11.85566153322,-54.5645303982892,-66.4201919315092,60.4923611648992,5.92783076660999,6100.25597837671,12266.9321486849,12262.0475485463,12234.8762901935,12251.3926463368,12272.1009972765,12263.7110275824
80,7.70811404663255,-228.802514180163,-236.510628226795,232.656571203479,3.85405702331627,14060.5962931901,28357.703214607,28353.3502417353,28342.2872211808,28334.9826548289,28381.5477093937,28369.3784698895
81,6.75565906640259,-238.890121508943,-245.645780575345,242.267951042144,3.37782953320129,5677.76062808759,11601.1670367505,11621.1415293855,11601.6827484041,11574.1375986999,11595.1489089312,11615.5544906091
82,-14.6831012389739,-75.3552121675166,-60.6721109285427,68.0136615480296,-7.34155061948695,3124.57899722997,6309.83010538848,6311.22243359839,6298.43051667706,6300.22003074168,6315.99743222995,6318.72407660523
83,1.4958459213376,33.4138142394368,31.9179683180992,-32.665891278768,0.747922960668802,1740.75335109541,3449.58873387272,3445.53489534647,3445.43122571596,3431.74322915592,3464.75334291087,3445.97310651239
84,10.0737205495825,19.0016486332461,8.92792808366357,-13.9647883584548,5.03686027479125,836.874372355116,1664.82081662657,1676.07518488923,1683.29310089638,1662.87431524202,1691.32148868538,1668.35887595391
85,4.82849219508353,16.1483115551237,11.3198193600401,-13.7340654575819,2.41424609754176,307.157738955022,602.995658550004,606.084966388968,614.250165968871,583.782769300946,600.234352998988,599.622853076493
86,-2.86928991231252,-11.3657392648165,-8.49644935250399,9.93109430866025,-1.43464495615626,-8.73139512522903,-8.96634089795407,-26.2826185422309,-25.2247326523357,-2.36566521515488,-14.9270953765954,-22.2594419103698
87,-0.733003836969147,-98.0571410747943,-97.3241372378252,97.6906391563098,-0.366501918484573,-89.295276754332,-81.2664162708388,-82.3887349397701,-83.6786961203034,-94.3636265245732,-93.7052290381398,-88.6756137973862
88,-3.16787816473516,39.2684035256098,42.4362816903449,-40.8523426079773,-1.58393908236758,-3.37603471566399,-49.1883511216729,-48.247191255854,-68.5258187416766,-47.8300849516527,-69.2657420031901,-42.2460504366609
89,3.10470390596311,168.524826109846,165.420122203883,-166.972474156864,1.55235195298155,101.503784666435,37.5874471289862,29.8556032458728,33.6145258501638,28.6548110012372,33.979755970533,34.6313609786739
90,-7.83794102541287,-111.978989858413,-104.141048833,108.060019345707,-3.91897051270644,-134.291680165814,-164.442311498628,-173.687170253252,-166.715264211671,-154.453597936983,-169.298144066444,-165.102538490813
91,1.09695820690831,-231.01398972157,-232.110947928479,231.562468825025,0.548479103454156,-244.325390023441,-256.539832118404,-252.593635694386,-247.818629504327,-248.617705911718,-242.651870371657,-252.737262760696
92,1.1356451366737,-58.825220142171,-59.9608652788447,59.3930427105079,0.567822568336851,-119.649923072502,-179.33898086616,-178.870335519256,-194.763767392258,-169.8189418822,-182.065383270994,-185.033867386694
93,1.14315070677549,-60.6489419225545,-61.79209262933,61.2205172759423,0.571575353387743,-110.142056619239,-158.492020609148,-155.958562160697,-158.340866355516,-173.717822477483,-151.157357303426,-164.902745290892
94,1.60815920939785,-191.046738266741,-192.654897476139,191.85081787144,0.804079604698927,-231.704975566638,-270.755053657136,-248.312814977719,-272.930044520093,-276.118022183044,-275.679708718671,-257.299727941194
95,2.83121701033087,-75.1832995903969,-78.0145166007278,76.5989080955624,1.41560850516544,-159.766048442092,-241.517580283456,-247.381214016757,-230.485347205249,-237.637230397435,-240.823877916584,-232.806636301422
96,5.86313340542256,-2.35847282476607,-8.22160623018863,5.29003952747735,2.93156670271128,-97.424054961346,-186.626503692503,-190.39677941511,-170.778471120168,-175.847083857167,-190.973083463003,-186.55441215678
97,-6.71327277005184,180.168206582835,186.881479352887,-183.524842967861,-3.35663638502592,32.1494519320549,-122.582575488777,-122.861166194023,-128.291321769735,-124.923001185554,-130.208736976667,-126.336777282297
98,9.57675886375364,37.8638770939433,28.2871182301897,-33.0754976620665,4.78837943187682,-95.0573164741218,-218.401751178433,-218.101091302291,-221.446926518867,-216.437341202312,-212.942257510353,-227.375225493393
99,-10.9518473940843,69.2275929173047,80.179440311389,-74.7035166143469,-5.47592369704216,-66.8575662869262,-213.894572885241,-225.14223506939,-213.437499936554,-223.926853405428,-224.446179422346,-219.082573538035
100,-2.49584718921687,497.296272748237,499.792119937454,-498.544196342846,-1.24792359460844,232.317071140409,-35.1579776566359,-39.9553551709105,-29.2943826255214,-33.6381976742123,-31.155374457885,-27.930667594308
101,3.95072750854888,269.785558737058,265.834831228509,-267.810194982783,1.97536375427444,58.4953375251353,-148.844156178238,-136.493043156661,-143.703835037944,-140.46372286306,-142.064415192523,-150.530737809226
102,2.5501799901831,161.237409292517,158.687229302333,-159.962319297425,1.27508999509155,-39.6064160667738,-237.900061435881,-238.224021700269,-225.069526205887,-233.932409475703,-242.709528817912,-232.162096932472
103,0.631905133079272,-4.88516579577117,-5.51707092885044,5.20111836231081,0.315952566539636,-174.645139824119,-343.773208719387,-341.138866975845,-352.320811754005,-347.565907290031,-344.959852712782,-349.66485797835
104,-12.4877435996605,-105.985149013693,-93.497405414033,99.7412772138632,-6.24387179983023,-264.502644315085,-435.507883216138,-420.553148895444,-436.876753286633,-431.762191431073,-433.566055803531,-422.245533675072
105,-5.68500105533167,-70.1558533826319,-64.4708523273002,67.3133528549661,-2.84250052766583,-248.763358729877,-433.055865132454,-437.784807559394,-435.022817208432,-430.256731234171,-431.082432132709,-432.200357341266
106,6.23800451328862,-77.8325454548758,-84.0705499681644,80.9515477115201,3.11900225664431,-281.508403803862,-478.94625763956,-495.447867863462,-490.368619072076,-501.237113515002,-483.35435725667,-499.942619975423
107,-9.22703900258057,114.184700004873,123.411739007453,-118.798219506163,-4.61351950129028,-130.925473319585,-385.262685646623,-388.767570794502,-382.674571300362,-379.814345574501,-396.303847642877,-379.050460305938
108,12.3112709250127,-49.2450188523217,-61.5562897773343,55.400654314828,6.15563546250633,-290.295476275467,-519.0346627736,-509.684867275471,-515.271679649042,-491.075599634205,-502.484911301639,-505.727889664064
109,-1.91019934881479,16.2058707906981,18.1160701395129,-17.1609704651055,-0.955099674407393,-229.312503565568,-476.74107727065,-497.06472780928,-490.213945227355,-491.080467550462,-479.832448792877,-486.643892466673
110,15.833286180452,6.82918237423291,-9.00410380621906,1.08746071599307,7.91664309022599,-252.311216551418,-495.618329296616,-499.976957060688,-504.250038930477,-512.589086833643,-498.348720074253,-490.955420906685
111,-2.11843257161672,59.9011095823662,62.0195421539829,-60.9603258681746,-1.05921628580836,-198.113272779185,-458.246087712352,-450.408655763138,-446.100892905204,-440.403829843533,-465.533262420562,-464.94675038787
112,9.95905743062031,84.9715953117702,75.0125378811499,-79.9920665964601,4.97952871531015,-203.566543986948,-482.145625855046,-466.486585966719,-458.811136102129,-457.848969246319,-469.39879935002,-483.807900256565
113,-12.0286781895556,37.1646810496168,49.1933592391724,-43.1790201443946,-6.01433909477782,-246.756520161915,-542.706399563001,-543.946611769381,-554.887718541955,-559.479688438994,-546.947408127395,-543.335992559674
114,-7.44885166175663,22.494291969575,29.9431436313316,-26.2187178004533,-3.72442583087832,-274.976930307137,-579.897004245606,-583.20778879369,-582.650877609354,-583.786992669688,-576.196264482423,-576.747031853738
115,3.34181238382007,14.0788464002835,10.7370340164634,-12.4079402083735,1.67090619191003,-291.146569322169,-593.030172660801,-594.780778585467,-614.415476218681,-605.123898017424,-596.201617012906,-607.314212437952
116,3.70909660830512,34.7125834453618,31.0034868370567,-32.8580351412093,1.85454830415256,-286.802462756124,-604.608412349306,-605.489148278924,-609.067098257015,-614.093439176359,-606.219977424276,-588.715021209617
117,-3.76336188439745,-106.578654692246,-102.815292807849,104.696973750048,-1.88168094219873,-399.297958377414,-695.780623946979,-698.037521289662,-692.065498055512,-683.046794858266,-697.651800358813,-697.572978368495
118,-1.82937079886324,-87.7334392448538,-85.9040684459906,86.8187538454222,-0.914685399431619,-398.912791218972,-711.921513991954,-715.38905916104,-706.907897750119,-715.340438473999,-717.457407570822,-727.290795676934
119,-2.36546674833517,-11.9100864295324,-9.54461968119722,10.7273530553648,-1.18273337416758,-349.019757672591,-688.494895663986,-676.903411403531,-667.862778967741,-676.35073712928,-682.983193279564,-672.330577098299
120,2.80752751248656,91.5454476525192,88.7379201400327,-90.1416838962759,1.40376375624328,-292.356449283892,-673.450818707817,-663.81877395729,-670.124905073782,-663.911883523164,-669.304028828163,-674.740264143096
121,-6.52680631124531,116.78933716676,123.316143478005,-120.052740322382,-3.26340315562265,-270.557024078487,-664.43019163498,-664.768273197289,-646.210968001571,-646.555258510576,-664.704069862957,-650.037967160664
122,-16.4123122736055,-51.7770934552245,-35.364781181619,43.5709373184218,-8.20615613680275,-416.928639412901,-798.492497644183,-785.160809782305,-802.723411760875,-808.924076768075,-795.8856245403,-805.526424257841
123,1.53119363635778,66.4637038351793,64.9325101988215,-65.6981070170004,0.765596818178892,-327.824858749882,-720.582227698585,-736.031749239919,-730.210614973359,-726.157142919983,-728.177374914143,-720.999380444846
124,8.96533272863599,244.974902220885,236.009569492249,-240.492235856567,4.48266636431799,-1050.21525152886,-2336.44007254997,-2333.22684317396,-2333.62940640442,-2335.87629435043,-2336.68831781886,-2338.49213837128
125,1.77491118168109,79.2063597373781,77.431448555697,-78.3189041465375,0.887455590840545,-2601.42440617955,-5280.28026091479,-5284.35551905466,-5278.71186335423,-5267.87689276465,-5288.3034047329,-5287.23364621491
126,15.8020516110118,66.3907504013623,50.5886987903505,-58.4897245958564,7.90102580550592,-5005.80978440156,-10062.2082675935,-10057.2014964293,-10058.4976628082,-10052.3552432816,-10055.2738607335,-10057.6876093353
127,1.41597390978131,238.844288176944,237.428314267163,-238.136301222054,0.707986954890657,-8784.89196309284,-17807.2122404528,-17813.311668385,-17794.6430330237,-17786.5573369008,-17814.1233955116,-17825.8195320577
128,-1.94808149777236,439.456927239575,441.405008737347,-440.430967988461,-0.974040748886182,-15878.1973620743,-32197.7997328859,-32191.7830560256,-32176.0710330761,-32136.9556714213,-32194.1911567999,-32201.2091704824
129,-7.02447987330379,767.763994739304,774.788474612607,-771.276234675955,-3.51223993665189,-38417.31371826,-77609.4159111327,-77618.5990793431,-77556.4259599352,-77509.110623516,-77680.4318151471,-77653.3569632723
130,6.8773564491712,269.96136543926,263.084008990088,-266.522687214674,3.4386782245856,-16328.0843675701,-32919.2527441302,-32953.5077290279,-32915.9446448811,-32873.2176716065,-32951.8885106744,-32939.7722190993
131,-4.44564736398752,7.75783806521213,12.2034854291996,-9.98066174720589,-2.22282368199376,-9423.08036746358,-18858.3642203564,-18878.8453135668,-18856.1810368743,-18836.6152003032,-18878.7406217747,-18879.2277090976
132,8.78981064568507,78.6138037074998,69.8239930618147,-74.2188983846572,4.39490532284253,-5526.50697415858,-11122.837941379,-11132.8658908168,-11104.0057825098,-11112.554933805,-11123.9886196874,-11132.7084916902
133,-2.52242034085793,75.8832361423702,78.4056564832281,-77.1444463127991,-1.26121017042897,-3192.85666945629,-6464.11899539581,-6495.6863120895,-6459.45538828915,-6468.42634361077,-6470.28276212644,-6478.66900392459
134,-0.25122650861158,40.3286755098088,40.5799020184204,-40.4542887641146,-0.12561325430579,-1799.91972129293,-3640.41934460428,-3645.39346317455,-3646.48016248146,-3643.10397788574,-3647.7162719293,-3648.92494759761
135,-14.6708057829237,63.5872220863821,78.2580278693058,-70.922624977844,-7.33540289146185,-963.557727360385,-2005.37348259008,-2005.77874199231,-2003.12824356096,-2008.27809203247,-2016.31534778661,-2004.03575724066
136,5.99566469923593,149.451514554647,143.455849855411,-146.453682205029,2.99783234961797,-872.778808332296,-1889.01346652,-1878.80869245637,-1897.45341262754,-1888.53325858529,-1898.3807147257,-1879.86996450968
137,-7.49543992403778,173.005155819847,180.500595743884,-176.752875781865,-3.74771996201889,-865.467952554362,-1911.43650085261,-1886.91678702936,-1878.65001423861,-1885.94469811866,-1892.58744192921,-1889.90733745677
138,-3.69935474614613,123.663384760468,127.362739506614,-125.513062133541,-1.84967737307306,-885.046097286875,-1897.45493408036,-1912.57217058408,-1903.18842688762,-1905.2543741602,-1896.15487432119,-1918.84574798241
139,0.686338279250776,-65.7228515462775,-66.4091898255283,66.0660206859029,0.343169139625388,-1034.06504773883,-2001.72090565212,-2000.32809515155,-1989.3349064994,-2000.6881283682,-2004.61579629616,-2009.48205590909
140,-2.41890564555069,-52.9894184305158,-50.5705127849651,51.7799656077405,-1.20945282277535,-1018.45769230925,-1986.34487183354,-1978.79099043281,-1988.80848864981,-1983.9913194871,-1985.86807324493,-1984.86163700712
141,-2.30531560545205,-56.1891596202913,-53.8838440148393,55.0365018175653,-1.15265780272603,-977.966234776643,-1902.04862553845,-1900.43793216176,-1910.57312814699,-1901.23839930832,-1909.47931605121,-1899.77595132199
142,6.72585408273153,50.3560460218869,43.6301919391553,-46.9931189805211,3.36292704136577,-897.624635539731,-1838.87946301862,-1841.10057391005,-1833.92826836018,-1846.93127561218,-1846.61738390886,-1837.82962135127
143,13.0205741645477,73.0558713631472,60.0352971985994,-66.5455842808733,6.51028708227386,-882.88695741698,-1825.80921203256,-1837.01833935824,-1815.91200112458,-1820.03950712926,-1828.32598783332,-1819.39220783437
144,-3.24505007619155,174.162217283185,177.407267359376,-175.784742321281,-1.62252503809577,-792.977751808081,-1763.36277097554,-1766.56875335169,-1776.03706024183,-1760.71261969293,-1767.8208044724,-1776.01083848509
145,6.71328887710115,4.63648799946532,-2.07680087763583,-1.27984356091474,3.35664443855057,-907.264984586145,-1812.45316829465,-1798.73065143087,-1795.95787322274,-1805.54241898734,-1801.18971996399,-1801.98034953623
146,-3.20327375023044,-103.261745630938,-100.058471880708,101.660108755823,-1.60163687511522,-972.571090650046,-1845.08370941938,-1845.99278178456,-1861.55248288513,-1839.38906144546,-1850.93479675284,-1852.70219318135
147,-0.822172462037997,-112.25698219554,-111.434809733502,111.845895964521,-0.411086231018999,-973.452307032596,-1835.46980433169,-1830.47443963873,-1834.94966433014,-1837.76430940322,-1837.93492531087,-1817.21884031189
148,-1.06991575821303,-26.9928357409663,-25.9229199827532,26.4578778618597,-0.534957879106514,-905.123096956973,-1784.32327393119,-1775.63824918732,-1768.66264472832,-1775.78894079837,-1769.44286140398,-1776.19852842198
149,3.41978605845361,61.3426710316853,57.9228849732317,-59.6327780024585,1.70989302922681,-826.823155147707,-1711.56919526865,-1725.87607208249,-1721.26531629666,-1704.7496815215,-1712.19975221972,-1722.58364430748
150,-3.64279649080709,-505.243933290825,-501.601136800018,503.422535045422,-1.82139824540354,-1221.75355966516,-1941.9059825303,-1952.89571492025,-1957.8246767396,-1948.86044086708,-1953.53417558904,-1952.97309925355
151,0.178175887238467,-301.943650088273,-302.121825975511,302.032738031892,0.0890879436192336,-1073.44180829442,-1844.76179061332,-1830.95615382251,-1838.0866064002,-1820.42552653942,-1832.41297485749,-1840.59328697671
152,-7.11045439302688,-29.4959043639828,-22.385449970956,25.9406771674694,-3.55522719651344,-852.264970504548,-1682.14449103814,-1687.87650175896,-1686.46386000069,-1680.953172151,-1670.30526624483,-1682.81353607299
153,-4.03628335983376,43.2770703267306,47.3133536865644,-45.2952120066475,-2.01814167991688,-770.546865616445,-1588.40708491945,-1575.60872347342,-1581.20674010791,-1585.9491186208,-1605.29820312225,-1595.21213242839
154,1.77405600715429,61.2986872110341,59.5246312038798,-60.411659207457,0.887028003577143,-744.834845400765,-1549.19432200541,-1553.51690709897,-1554.38668105294,-1557.42077697016,-1556.90906754418,-1550.46529838609
155,-3.31277395333746,-21.9980628359481,-18.6852888826106,20.3416758592793,-1.65638697666873,-821.408912510567,-1624.13253613852,-1629.36842256755,-1609.63361591607,-1629.35213493809,-1620.93076684428,-1619.10640986665
156,-2.24215560665471,30.6362305034418,32.8783861100965,-31.7573083067691,-1.12107780332735,-761.311304668649,-1555.50099544739,-1546.02166211046,-1532.94404957979,-1543.29358118534,-1544.24116654109,-1552.27539122375
157,5.52930467386614,-4.89762656681705,-10.4269312406832,7.66227890375012,2.76465233693307,-792.506950254552,-1574.58696926842,-1589.3819712335,-1573.84173772673,-1584.4951342456,-1576.91234331793,-1568.33043015629
158,-0.796510212705471,-26.4923278097995,-25.695817597094,26.0940727034467,-0.398255106352735,-793.837903465886,-1561.97998933468,-1575.38991624716,-1576.063777448,-1576.12118960879,-1569.28008680721,-1568.17072295997
159,-1.11572386382613,-198.38323054518,-197.267506681354,197.825368613267,-0.557861931913067,-920.087893471675,-1642.908280262,-1655.54364890486,-1662.62259839944,-1635.15984742893,-1655.01899551353,-1665.51938721861
160,-0.740239738370292,89.0508320188674,89.7910717572377,-89.4209518880525,-0.370119869185146,-681.180402569225,-1452.15187689569,-1438.91383421564,-1434.30900705894,-1454.44179822109,-1443.76882215776,-1435.68038446436
161,13.1199564568815,26.8566451424267,13.7366886855452,-20.296666913986,6.55997822844074,-718.004929368602,-1449.74654742275,-1446.40163421837,-1455.53455949912,-1445.58632788583,-1454.49681333432,-1455.10971005136
162,-1.59287564142141,20.1152273693006,21.708103010722,-20.9116651900113,-0.796437820710707,-703.376854332979,-1428.46181167668,-1452.18910396978,-1455.82472350338,-1441.57432984328,-1445.5505241036,-1453.94223645705
163,-2.43486120327725,141.882241946063,144.31710314934,-143.099672547702,-1.21743060163863,-607.763010155148,-1359.84312345964,-1341.91122739404,-1339.79932704923,-1341.33196425051,-1363.72679683717,-1348.27503391542
164,3.42899015572038,-16.1740653605666,-19.603055516287,17.8885604384268,1.71449507786019,-703.817657425359,-1388.03225933443,-1383.05503900009,-1394.4246473941,-1390.25046490645,-1392.75513192898,-1402.68278642863
165,2.25736159528606,-124.848530624644,-127.10589221993,125.977211422287,1.12868079764303,-788.816588918213,-1450.5272856165,-1455.52503212285,-1452.32651486824,-1440.20006049785,-1464.59376329585,-1449.2293534186
166,-5.2081760946603,-62.8774769708398,-57.6693008761795,60.2733889235096,-2.60408804733015,-703.99721097578,-1350.32512107538,-1359.26787728613,-1368.02566722341,-1364.20453061425,-1353.70855334471,-1352.70183661071
167,0.932333377888426,-71.5969122670649,-72.5292456449533,72.0630789560091,0.466166688944213,-731.130516735138,-1389.73178782532,-1373.87948989877,-1370.16779643606,-1362.73319545758,-1367.47202760432,-1370.44454833429
168,-7.91216998783057,-224.444493200892,-216.532323213061,220.488408206977,-3.95608499391528,-822.059440675701,-1427.58655813834,-1428.12325861008,-1413.36567856788,-1416.62532702705,-1420.83505822878,-1430.05710938276
169,-2.77128287105006,35.6480223684339,38.4193052394839,-37.0336638039589,-1.38564143552503,-621.514908325727,-1281.44912189094,-1283.06271515117,-1279.45656566651,-1263.25887722254,-1283.26295115903,-1270.71831624291
170,4.10271435012692,206.149266606604,202.046552256477,-204.097909431541,2.05135717506346,-471.148027013784,-1144.34260628404,-1137.09210780129,-1141.61387278436,-1139.66049520578,-1147.48934089756,-1147.02092717233
171,-2.28320829028962,19.9021193237277,22.1853276140173,-21.0437234688725,-1.14160414514481,-589.227102786565,-1200.63953318715,-1196.29859900469,-1205.39445105233,-1202.68118536589,-1207.35574341312,-1203.98286735371
172,2.88955107986112,17.06982537976,14.1802742998989,-15.6250498398294,1.44477553993056,-584.427596048525,-1183.03546639695,-1180.54182455185,-1175.87373112538,-1189.17961180519,-1189.34085172173,-1191.23243296373
173,3.13306328412727,105.416306179686,102.283242895559,-103.849774537623,1.56653164206364,-505.59859267807,-1113.4804282517,-1098.65624174857,-1110.42962770842,-1115.60305433514,-1112.03293294556,-1088.49081009376
174,0.314572307950584,140.065912807273,139.751340499322,-139.908626653298,0.157286153975292,-257.686909168537,-655.125158836396,-658.691493344581,-655.350454664644,-662.431187992828,-660.385047306801,-659.605957951309
175,3.47595360365813,-42.5240293399256,-45.9999829435837,44.2620061417547,1.73797680182906,-18.1482124652684,9.70355801304686,6.52809437620454,3.85956622502999,5.56279265470221,6.52294272239669,7.99617953656707
176,-5.58041446105926,72.1923144698085,77.7727289308677,-74.9825217003381,-2.79020723052963,688.159344800995,1298.54596067112,1295.96814965553,1304.84729423115,1311.67272770661,1314.05590756563,1304.3543238116
177,-1.72557006520219,47.3927236002055,49.1182936654077,-48.2555086328066,-0.862785032601096,1698.92359215436,3348.72889064331,3362.64943668508,3365.37562895237,3355.03096898593,3369.4779644954,3359.77709025214
178,-8.12413281056797,-5.50148203439312,2.62265077617485,1.43941562910913,-4.06206640528399,3589.03327944466,7175.44390811314,7172.85586387949,7162.71663991912,7161.17162190151,7158.66979630527,7171.49672852541
179,12.4909476953908,-163.167354083416,-175.658301778807,169.412827931112,6.24547384769539,9309.69890768446,18795.0561171477,18810.1126345258,18785.7371258076,18770.8891989151,18820.6400120063,18799.6809916423
180,12.739718318393,-301.214733041765,-313.954451360158,307.584592200961,6.36985915919649,4013.49406131011,8340.94257398037,8343.49049030541,8340.08076900514,8322.30537228953,8350.22890906566,8339.46683003395
181,1.51508098412887,-197.309579056193,-198.824660040322,198.067119548257,0.757540492064436,2524.73219567313,5248.28905138659,5229.14078219919,5232.34300464613,5235.25599566297,5243.86631150026,5247.26058223745
182,0.857096964697121,-56.0445029664261,-56.9015999311232,56.4730514487746,0.42854848234856,1748.52919011441,3553.95998015994,3556.40824167352,3556.75328740076,3560.28119538745,3576.07774297465,3559.72766645273
183,-6.46663083814201,-229.109341834614,-222.642710996472,225.876026415543,-3.233315419071,1115.37986337242,2453.40243774132,2429.73741095746,2434.01866079759,2434.35371989169,2440.75184104173,2453.0068343746
184,5.52970026197727,-60.9753629525367,-66.5050632145139,63.7402130835253,2.76485013098863,882.821847083644,1832.1487573818,1852.09387444911,1851.65854131078,1852.61661266207,1833.03318421243,1846.57250928771
185,-13.7873958548007,77.8015833686804,91.5889792234811,-84.6952812960808,-6.89369792740035,829.525327766984,1567.46167631049,1552.87783588367,1565.13160269661,1554.19381106991,1546.12917183479,1554.33359565231
186,-0.542274428531528,-28.7426197162713,-28.2003452877398,28.4714825020055,-0.271137214265764,722.594461176355,1473.38926764045,1464.80884832845,1466.25952966948,1477.92301854418,1472.59958414373,1475.15008504209
187,-0.517293741955655,-8.04673774223193,-7.52944400027627,7.7880908712541,-0.258646870977827,754.630113028994,1516.78967005826,1519.33108317223,1511.23848928048,1500.23986683044,1511.2706434844,1499.16689363198
188,2.82545714022126,65.1000326841313,62.27457554391,-63.6873041140207,1.41272857011063,810.451430476518,1558.62828540913,1563.38426445451,1566.90036872987,1563.38514437765,1565.19775679967,1567.88642324624
189,-1.0899371864507,-39.8873851806275,-38.7974479941768,39.3424165874021,-0.544968593225349,732.393951377162,1503.5853507485,1512.46175507444,1513.93775875532,1509.88081873459,1515.22371708322,1497.98979363404
190,5.05481896991842,76.9472201085882,71.8924011386698,-74.419810623629,2.52740948495921,831.637874863372,1591.38334858808,1593.8514107712,1585.01273139886,1588.28054273731,1592.92330797846,1589.28722697261
191,8.92160257752403,139.056262950122,130.134660372598,-134.59546166136,4.46080128876201,856.38934607488,1582.64403177716,1590.41865827295,1587.19234714468,1573.99096821796,1583.45096076868,1571.82466498041
192,-6.71562260156497,272.838583789387,279.554206390952,-276.19639509017,-3.35781130078249,971.604196229659,1663.65418606836,1668.70631175541,1666.66133633832,1662.00685276336,1680.44864112837,1682.26250246045
193,-6.47232419843203,9.13218023025547,15.6045044286875,-12.3683423294715,-3.23616209921602,795.818714945432,1576.03292546218,1587.39681029529,1572.86091045212,1589.40323828993,1596.01667344826,1608.83526973598
194,-12.7544184666767,-129.601360739471,-116.846942272794,123.224151506132,-6.37720923333836,699.074420209741,1514.99578269228,1505.27709305575,1507.58916895266,1497.02052946467,1513.75070510458,1515.61567116703
195,18.0335111877648,-147.30996270763,-165.343473895395,156.326718301512,9.01675559388241,678.138974049187,1521.62142199377,1520.87834150024,1511.71645551,1508.13392174401,1513.12546235064,1525.84735996672
196,-8.86000890372088,-132.032834806043,-123.172825902322,127.602830354183,-4.43000445186044,699.952086328194,1523.07699855871,1535.62106809113,1533.2116991567,1524.3862427717,1527.64045801136,1511.94433177955
197,-11.5214714145695,-51.5479666426254,-40.0264952280559,45.7872309353406,-5.76073570728477,761.239780215838,1562.50605565973,1570.94590781472,1556.95282617625,1562.75036062952,1571.21742074337,1557.86446829123
198,1.43847632422694,146.320960341691,144.882484017464,-145.601722179577,0.71923816211347,918.992067450192,1693.10165088292,1692.74613651441,1683.04386939283,1675.85732757076,1689.38088919575,1681.63290390262
199,17.6610299793829,373.862654974917,356.201624995534,-365.032139985226,8.83051498969144,1072.89324005254,1789.58485510954,1799.11222010964,1804.54316287619,1806.50151134047,1791.0565200717,1788.65462889278
200,4.81327838916332,496.891339925292,492.078061536129,-494.484700730711,2.40663919458166,1167.51688511483,1842.95570869354,1838.09522119557,1847.34566265944,1839.31661988073,1839.3331133186,1829.3987898335
201,2.3938949770818,209.25641821156,206.862523234478,-208.059470723019,1.1969474885409,948.882045787715,1690.90156834095,1660.86382413327,1678.58309667755,1679.28059286097,1687.64877814069,1685.85361955059
202,2.69181024926365,-37.1309386430075,-39.8227488922712,38.4768437676394,1.34590512463183,750.926855639365,1541.676460171,1536.99927542321,1534.18976612383,1536.38615154015,1540.0139992022,1536.88194223458
203,-20.976578630507,-149.243268870603,-128.266690240096,138.75497955535,-10.4882893152535,686.163411609581,1500.59351345926,1493.66063456921,1489.87961184961,1498.77485708665,1496.96884008433,1501.25732376851
204,-4.4942940104811,-15.9321719840809,-11.4378779735998,13.6850249788404,-2.24714700524055,788.97640490855,1589.3906877907,1590.91375056529,1602.39578442567,1592.84239815551,1585.19893373465,1600.72779966844
205,0.621643760387087,-35.7106979246018,-36.3323416849889,36.0215198047954,0.310821880193544,773.486274841824,1583.30489136864,1603.18862826822,1584.83478648472,1587.40318251718,1586.49170506984,1598.53330277116
206,-12.0774795844918,28.3356371107511,40.4131166952429,-34.374376902997,-6.03873979224591,825.668971833977,1610.92482697271,1599.61824656843,1600.54856200266,1611.44497757492,1614.0009313231,1604.25795015859
207,20.7574566961557,18.1375226079545,-2.61993408820126,-7.75879425987659,10.3787283480779,810.575859883247,1623.7716538547,1628.60978045728,1617.56640229747,1621.92100176823,1627.82357921638,1635.13236640033
208,-0.667986329179257,-107.357821541664,-106.689835212484,107.023828377074,-0.333993164589629,714.404735399556,1535.4993060116,1521.20860177939,1520.80244219361,1522.81107476295,1523.66774143011,1533.14772474419
209,9.02850578443031,-214.088365517295,-223.116871301725,218.60261840951,4.51425289221515,602.809135471529,1428.73514224478,1436.27256577765,1447.83053599633,1442.28267675385,1446.36970645934,1443.64115110555
210,6.72808898528456,63.9594891684246,57.2314001831401,-60.5954446757823,3.36404449264228,840.903043829778,1624.57468747642,1618.6744856328,1621.85584377794,1616.41469023447,1602.41221094198,1606.79016429529
211,-9.14886885436135,14.3949194130255,23.5437882673868,-18.9693538402062,-4.57443442718068,790.77722112216,1558.01065397693,1570.05061926489,1571.433953728,1569.10780215653,1562.71563869604,1559.78167538642
212,-2.28753155792947,-229.49225363697,-227.204722079041,228.348487858006,-1.14376577896473,622.096225578061,1471.39717323516,1481.33851331094,1475.48858672281,1461.97446206404,1474.18148758693,1488.98961989844
213,-0.923451084381668,-20.0403980406409,-19.1169469562592,19.57867249845,-0.461725542190834,774.782067608321,1568.6810821729,1562.5619619106,1549.80196662626,1553.10295928913,1558.88629456371,1548.24991000223
214,3.09424206745462,18.2439479371242,15.1497058696696,-16.6968269033969,1.54712103372731,789.352394137939,1563.55508240621,1573.96026057261,1568.34011775581,1565.55924148511,1578.6835032847,1573.69923416141
215,7.9953854677442,-81.7136713373475,-89.7090568050917,85.7113640712196,3.9976927338721,712.028878370547,1513.76681354619,1531.84203265142,1516.11454066198,1517.33207402378,1531.83921004378,1522.40029374766
216,-0.847708335117204,-76.7929309263418,-75.9452225912246,76.3690767587832,-0.423854167558602,1125.14009358006,2326.22540975135,2331.0533298261,2330.84205229985,2329.630686602,2326.78005696405,2337.01656525719
217,-3.36381634470308,-88.7847444744257,-85.4209281297226,87.1028363020741,-1.68190817235154,1844.28871298935,3773.99835410842,3764.27551501003,3756.32797317038,3754.26440740362,3783.91021351001,3783.18586623779
218,9.25734912228654,91.7400661597203,82.4827170374338,-87.111391598577,4.62867456114327,3173.37572777792,6264.26873851841,6245.86555141371,6243.00029850638,6244.11148919296,6269.22198031304,6252.17138166519
219,-1.21017767852754,-192.476736737037,-191.266559058509,191.871647897773,-0.605088839263772,4923.22857249469,10037.7237040479,10051.7290196798,10042.1092647385,10052.0321224096,10050.3754543894,10059.5783861348
220,-0.184919729275862,-228.685052290763,-228.500132561487,228.592592426125,-0.0924598646379309,8552.42902376462,17333.3581800907,17333.7415421747,17319.7908252827,17306.0277548385,17341.5814250907,17335.1028747858
221,-2.60328766785096,-916.312001136597,-913.708713468746,915.010357302672,-1.30164383392548,19528.5384229469,39970.7855593626,39981.4727049477,39928.5726160491,39899.6437690695,40001.5923452076,39989.8492298215
222,2.16888662293786,-297.715621932177,-299.884508555115,298.800065243646,1.08444331146893,8377.61227567036,17055.1090598958,17051.1323386124,17039.9063393402,17033.4573247822,17060.8898712101,17064.1227518548
223,-13.9411585228518,-180.534293823468,-166.593135300616,173.563714562042,-6.97057926142588,4783.8487905849,9734.29071647042,9730.53428083289,9742.01644287235,9732.29314816438,9734.87067398618,9736.68243642521
224,15.6134004123742,67.0617201300629,51.4483197176887,-59.2550199238758,7.80670020618709,2954.27964744766,5857.11097517764,5879.18939396803,5871.57818299744,5861.66345533603,5857.20564861645,5859.26910956932
225,-4.95282818900887,-87.023710629961,-82.0708824409521,84.5472965354566,-2.47641409450443,1653.16328233341,3388.39744710777,3391.72432481908,3382.3212167852,3379.35986895903,3377.77545601426,3379.09504069388
226,2.18770264092018,-178.43952335717,-180.627225998091,179.53337467763,1.09385132046009,840.099626252544,1860.82647850318,1861.24621625696,1853.04681457728,1862.64332253553,1854.25928464156,1855.60776431975
227,-4.46713420859305,-33.8831655566173,-29.4160313480243,31.6495984523208,-2.23356710429653,540.078718606048,1109.57346856012,1106.65841813345,1108.69996925059,1108.6295897396,1116.45873247425,1119.74307533514
228,0.916173244157108,-89.1797843942477,-90.0959576384048,89.6378710163262,0.458086622078554,486.74442019721,1063.58479803283,1067.1435288974,1067.2832279237,1062.92134485164,1063.60547450665,1065.21181451454
229,-0.959664864523802,-141.011342986603,-140.051678122079,140.531510554341,-0.479832432261901,440.752963571838,1021.55760526576,1020.60394931858,1018.03511166724,1022.40157752365,1024.09277628263,1026.17205860166
230,-13.7212363558356,-150.277992886608,-136.556756530772,143.41737470869,-6.86061817791779,434.985133128837,1006.52702278845,1004.30989126125,1005.62407007755,988.661266403942,1020.81859835764,1011.16724792114
231,8.32974099356215,-185.698894727451,-194.028635721013,189.863765224232,4.16487049678108,382.157219490517,958.343074702047,974.964103445323,963.882629876229,962.799028784852,971.02170504097,959.968820086011
232,-9.29346601292491,-4.71311004224117,4.58035597068374,0.0663770357787143,-4.64673300646245,533.988646252052,1063.39693653342,1071.89317639853,1069.60629515827,1070.89030804147,1077.68626163431,1054.95937091712
233,3.73106827490847,-138.68307052867,-142.414138803579,140.548604666124,1.86553413745423,420.641362601513,983.696864006604,983.597929498879,963.444720417028,988.671973883524,984.603657857311,991.380914696143
234,-12.0834169115114,130.424593021336,142.508009932848,-136.466301477092,-6.04170845575572,656.615825375164,1170.72364081748,1166.54810292748,1150.71947505992,1158.77844999463,1147.08454855325,1156.55901861162
235,15.4526938980271,68.1811002193135,52.7284063212865,-60.4547532703,7.72634694901353,571.738211821023,1090.74801732076,1087.77500094144,1089.6851584416,1103.90540506245,1100.34356469422,1091.49690575941
236,-4.34246099245502,47.0742478015018,51.4167087939568,-49.2454782977293,-2.17123049622751,564.558291930021,1077.69987506609,1077.1662802471,1082.48195309498,1069.81621753855,1077.62998435184,1086.61426523805
237,8.68725554985576,138.488625909638,129.801370359783,-134.14499813471,4.34362777492788,624.769849913268,1119.73832946675,1115.17329052766,1119.08435126703,1113.8389080354,1112.47660867003,1117.50608064616
238,14.8481765920296,38.1532445398334,23.3050679478038,-30.7291562438186,7.42408829601482,539.332718729114,1055.36036951042,1052.96768118374,1056.49392014975,1054.71531320547,1053.52378868579,1052.67713577871
239,9.99735447464627,-37.2588638033194,-47.2562182779657,42.2575410406425,4.99867723732314,460.016630130805,967.289478539577,959.786214636755,971.417198358278,971.182521056035,986.490596478019,977.122650170466
240,-8.93798717486789,300.24064732049,309.178634495358,-304.709640907924,-4.46899358743394,755.662006037004,1202.14537757865,1205.43715555186,1199.63904473209,1192.97405797523,1181.20574629432,1193.54623851427
241,-0.546473586582579,399.925373801118,400.4718473877,-400.198610594409,-0.273236793291289,1035.27732950792,1670.08281162815,1662.98730025903,1661.62425806117,1664.85366587629,1661.62319106283,1669.45165564868
242,-19.646130564186,261.542948775372,281.189079339558,-271.366014057465,-9.82306528209301,1301.19973694396,2321.21039454837,2320.4262077013,2332.85842518683,2342.82382831885,2349.09039302234,2341.10759753463
243,-6.48722743813414,4.64911935594864,11.1363467940828,-7.89273307501571,-3.24361371906707,1705.73837060959,3400.34039442509,3397.50070369215,3395.09108271604,3393.38445044836,3395.53488445445,3399.73647031002
244,8.89575066568796,-56.9196159011044,-65.8153665667924,61.3674912339484,4.44787533284398,2654.99439802846,5375.80416262371,5380.56516276416,5364.91266165979,5363.84992324497,5376.09764796201,5379.14921387009
245,-1.99103531031869,102.134813657118,104.125848967436,-103.130331312277,-0.995517655159347,4641.36265275569,9178.59945654395,9172.01881049236,9169.43527243732,9170.94542818895,9170.04801867489,9181.8369768
246,3.35772116415319,-92.0936238683353,-95.4513450324885,93.7724844504119,1.6788605820766,10428.1339469051,20951.7192388427,20962.4459042519,20930.2378459718,20903.3946845245,20956.8929007118,20951.9578808296
247,1.65722873961204,68.946040110779,67.288811371167,-68.117425740973,0.828614369806019,4287.9969019211,8508.70499247103,8514.63408341073,8515.25653596668,8497.92521373689,8520.40185667496,8519.55253243289
248,0.667040049418574,-258.532484246331,-259.199524295749,258.86600427104,0.333520024709287,2038.70233628724,4336.60419687023,4347.95984532317,4346.47089257566,4335.79776877991,4354.48223321387,4339.7309005821
249,-8.28984187869355,-103.724605026975,-95.4347631482815,99.5796840876283,-4.14492093934678,1062.05922851649,2219.55322018126,2217.71321816967,2214.27781606201,2205.30323212253,2233.40642127433,2210.25129991671
250,0.420023596845567,-135.361460682703,-135.781484279549,135.571472481126,0.210011798422784,374.371191073078,884.523866425705,900.745993629476,890.513702744967,886.742794590304,893.440334934741,894.766383365117
