sep=, 
EKG Messung vom 28.01.2019 17.49.46
gemessen mit dem EKG Dongle der Hochschule Luzern BAT HS18

 
 , Lead1, Lead2, Lead3, aVR, aVL, aVF, V1, V2, V3, V4, V5, V6
0,1.05744037069962,-195.509236979065,-196.566677349765,196.037957164415,0.528720185349812,3587.53255845333,7371.63179425642,7392.89574945942,7376.18419059378,7377.97954395751,7391.46370689102,7397.72100919046
1,-16.8281731543248,-187.230999580235,-170.40282642591,178.816913003073,-8.41408657716238,2003.76101848616,4177.92486339822,4176.5609766866,4176.26484251479,4168.29971652667,4178.11564307142,4160.71098078482
2,3.12013451402891,81.4129014474456,78.2927669334167,-79.8528341904312,1.56006725701445,1207.48917962494,2336.68559231647,2333.69540007229,2341.51281155553,2331.11193147561,2330.08390235424,2339.10345730736
3,1.23008191696135,-151.23767396214,-152.467755879101,151.85271492062,0.615040958480677,503.199501816911,1158.86675951292,1174.59843026922,1159.79052352646,1161.13410531724,1189.48638645466,1158.32565614715
4,-2.16783525998471,-91.0636906319996,-88.8958553720149,89.9797730020073,-1.08391762999236,526.290165362007,1141.47618609603,1147.5798848471,1160.01187344058,1149.73557592422,1141.51096403779,1166.71660373671
5,-8.79191022057785,-41.8340958114131,-33.0421855908353,37.4381407011242,-4.39595511028892,575.426272222903,1183.89473003664,1181.18886001309,1193.12060457046,1190.38027117911,1186.38024104809,1191.88598907134
6,-4.88453388217022,-31.946484037122,-27.0619501549518,29.5042170960369,-2.44226694108511,599.593448643223,1226.2488474414,1232.35058410832,1235.71756454991,1236.54421274373,1242.10048861912,1232.96495835637
7,-9.10441162320785,36.5669776721334,45.6713892953412,-41.1191834837373,-4.55220581160393,635.606911298499,1225.54243330166,1204.78149350049,1206.12500910036,1213.07993588885,1224.96932979921,1207.67349972844
8,-0.192172026378103,-48.4221140316222,-48.2299420052441,48.3260280184331,-0.0960860131890513,555.906566268168,1160.04307454158,1145.36884567948,1149.66797334581,1144.32346424388,1157.00646308437,1148.69794123061
9,-3.5385018963425,-17.021988050692,-13.4834861543495,15.2527371025208,-1.76925094817125,605.715638401525,1224.9147629574,1218.55575674112,1216.91776743482,1228.75738971573,1208.50573630788,1222.36193654119
10,7.31821526677231,57.9364767481165,50.6182614813442,-54.2773691147304,3.65910763338616,616.044349977659,1181.47043847397,1182.92825884683,1175.76358966308,1158.43330296423,1166.13457293549,1171.3794320412
11,16.1977209317847,-84.0515600396902,-100.249280971475,92.1504205055826,8.09886046589236,490.435280857651,1081.11984268678,1085.82699768574,1078.55019844178,1075.3348313187,1090.3294052819,1088.42744860353
12,-3.85813355329446,59.6114612786623,63.4695948319568,-61.5405280553096,-1.92906677664723,600.710715333538,1137.95183583512,1147.40913104411,1145.30825500825,1130.45339525086,1138.18764440311,1155.69456830868
13,-7.232046894409,96.9359899798874,104.168036874296,-100.552013427092,-3.6160234472045,615.471324986953,1126.77461309961,1147.55878743652,1144.15465866373,1144.8960274063,1141.55419323526,1146.57177483451
14,6.15474876831286,287.424846471986,281.270097703673,-284.347472087829,3.07737438415643,765.814330528272,1250.35856335287,1253.67756452077,1238.09241580756,1247.33105797871,1261.66699246509,1239.9757465013
15,2.09436424940941,464.060260488593,461.965896239184,-463.013078363889,1.0471821247047,944.282540290049,1426.59918434091,1426.95283075271,1422.77665949977,1436.80427280284,1423.03816557542,1431.72116643819
16,-7.37351813100395,163.273662640917,170.647180771921,-166.960421706419,-3.68675906550197,684.867837206984,1199.08849364205,1195.48635477471,1186.5906341151,1192.28401125543,1203.35842996655,1182.1130146058
17,-2.39805310053634,272.663224438904,275.06127753944,-273.862250989172,-1.19902655026817,761.46646724506,1247.87165695068,1246.88656807324,1264.3326154945,1245.75561356716,1249.36308904467,1247.39621761368
18,0.983019209146732,-65.4318095466588,-66.4148287558055,65.9233191512321,0.491509604573366,528.503068823804,1123.42096640341,1122.97579491758,1107.47344174571,1109.64233500313,1119.73764597869,1117.47740844719
19,8.49820712313522,-8.37128359245253,-16.8694907155877,12.6203871540201,4.24910356156761,565.399893851252,1147.66927841809,1134.23203385854,1151.04927883166,1146.91811849861,1145.06024741687,1142.19117291848
20,-4.80901234658086,141.783313166816,146.592325513397,-144.187819340106,-2.40450617329043,741.821758412174,1337.05119131095,1340.34589728698,1359.34090019489,1341.27226078545,1329.69215607233,1335.77461352307
21,3.23931830795482,61.3343070625851,58.0949887546303,-59.7146479086077,1.61965915397741,642.523216050118,1226.95144334561,1216.8660744665,1216.6798081219,1202.91872134857,1215.96350736445,1227.27688362962
22,10.2738224214118,30.6839893577853,20.4101669363736,-25.5470781470794,5.13691121070588,571.520672719751,1122.63117850313,1117.61435261276,1118.99903711703,1140.13044227604,1132.66507836748,1141.56108472103
23,-1.00532711349661,62.6865751613805,63.6919022748771,-63.1892387181288,-0.502663556748303,619.999552260779,1176.30720224668,1167.32193119932,1161.33471000736,1165.95093273715,1156.82631541591,1150.1741740701
24,-15.4449756228423,120.196487609122,135.641463231965,-127.918975420544,-7.72248781142116,637.321141332606,1139.00081943325,1150.66864828201,1156.53129756148,1151.05118103535,1151.2741044687,1155.16174513957
25,5.95745109985,-94.7531491550617,-100.710600254912,97.7318747049867,2.978725549925,514.165764762554,1129.04212978002,1143.71671770883,1121.24191494571,1129.7612324167,1139.64377440829,1138.08466433146
26,0.767403320845915,-79.8991955326928,-80.6665988535387,80.2828971931158,0.383701660422958,497.849282163777,1076.36516318109,1077.39392053508,1065.62374808587,1068.24874345437,1090.60824443493,1086.61438273915
27,7.20828322815942,-124.230040543509,-131.438323771668,127.834182157589,3.60414161407971,469.575842078135,1070.59000792794,1059.38840034266,1085.64767413301,1069.52373700097,1060.29246935996,1069.1810679138
28,-4.20670245777001,-19.6595211596868,-15.4528187019168,17.5561699308018,-2.103351228885,544.132373576635,1103.71756585519,1102.42506894056,1096.42283397628,1093.06516126203,1097.18495999894,1084.23616121139
29,-11.6664212396718,104.478241407225,116.144662646897,-110.311452027061,-5.83321061983588,615.121846009934,1114.09902937297,1135.29802915402,1115.5352111278,1115.22544028255,1112.57502422578,1122.70222391916
30,1.86086045042612,32.1273181398283,30.2664576894022,-31.1968879146152,0.930430225213058,520.223901034391,1010.18134437938,1000.6007254798,1005.40854302092,1002.06588854044,997.288214845437,992.137856382818
31,4.86634363009944,63.1860362535226,58.3196926234232,-60.7528644384729,2.43317181504972,545.255332136352,1032.19097164928,1038.7090621207,1036.20469303112,1027.09075582155,1024.19502909362,1037.83074969152
32,6.3994429432496,102.580281520932,96.1808385776822,-99.380560049307,3.1997214716248,605.688069145472,1115.19529971326,1102.9184795412,1100.34761982752,1107.15933963077,1109.17683990134,1100.27180272411
33,1.40962738910457,99.791428456927,98.3818010678224,-99.0866147623747,0.704813694552286,598.255315761053,1098.12883045428,1085.68470027365,1094.48473908889,1101.36892277939,1096.01646783084,1105.55237969986
34,2.35180596835562,101.81975235336,99.4679463850043,-100.643849369182,1.17590298417781,617.395062788739,1135.32217919247,1132.53968164328,1131.4508101567,1137.83933228705,1133.42406666951,1141.730722484
35,-1.69517819985049,-211.502343528002,-209.807165328151,210.654754428077,-0.847589099925244,378.795519445455,967.398204219062,977.450396549568,965.282571338379,967.837071490649,978.109566135186,975.229365577077
36,8.20293519602274,-39.4928101911792,-47.6957453872019,43.5942777891905,4.10146759801137,479.57940299809,1006.85455138338,1015.90248903359,1017.03016801906,1003.86550328298,1020.66714076968,1012.39433715632
37,-2.08930407528533,-120.520230712922,-118.430926637637,119.475578675279,-1.04465203764266,413.429054112843,945.289034863323,953.936435831769,949.385720456659,960.590452599019,960.362761299912,951.754356445745
38,-2.76854312585783,34.9514627057943,37.7200058316521,-36.3357342687232,-1.38427156292892,529.033882060903,1020.34775829015,1019.58889884705,1014.0926773145,1009.11252901194,1015.52373965611,1030.2954936274
39,0.666082323237788,123.484913390159,122.818831066921,-123.15187222854,0.333041161618894,613.617688771832,1104.41654647674,1101.50806177568,1107.33282728656,1092.97563618471,1106.447354214,1108.01578313691
40,-9.10453510197112,-26.1728552045824,-17.0683201026113,21.6205876535969,-4.55226755098556,525.452441423142,1067.9732029489,1054.72748008059,1059.62225621653,1052.72768376474,1063.85197664128,1045.18856529653
41,2.50746080317185,29.3250358815421,26.8175750783703,-28.0713054799562,1.25373040158593,517.432444210732,1008.04731334309,1019.98405394665,1024.41910677534,1015.11158502949,1016.06780752915,1019.34015080993
42,7.84089738604962,-33.276009099849,-41.1169064858987,37.1964577928738,3.92044869302481,806.833211334189,1654.78332915428,1662.30420005679,1666.85412869477,1658.87770327838,1644.05865093609,1652.75920447221
43,-7.9448992482794,-38.2562479825574,-30.311348734278,34.2837983584177,-3.9724496241397,1389.8047598003,2809.92086833488,2797.80385914096,2799.32636907694,2821.02290535497,2819.46948365492,2819.62002073607
44,7.26976186421234,-245.28546838378,-252.555230247992,248.920349315886,3.63488093210617,2166.93464104738,4586.42451234275,4579.19880570352,4588.52752052492,4572.94311707839,4577.50594798027,4589.96015148101
45,17.2214842452377,-286.827846505126,-304.049330750364,295.438588627745,8.61074212261883,3692.53672914908,7689.12278904853,7686.20539576665,7660.2426218421,7671.16765418253,7702.99019759163,7677.70996889245
46,-10.535035567329,-294.339411263412,-283.804375696083,289.071893479748,-5.26751778366452,6591.18806548073,13466.1805066575,13479.2934699819,13458.5142224048,13446.075329011,13483.1416585891,13474.1976351641
47,-15.377924110071,-262.65026713346,-247.272343023389,254.961305078425,-7.68896205503552,15781.0672801647,31809.4069033528,31807.0730349889,31787.3475741396,31762.9305345596,31822.267908926,31819.8533378055
48,5.69120186963119,-146.77519927494,-152.466401144571,149.620800209756,2.84560093481559,6494.39061699049,13141.2476351256,13149.3690013808,13140.8962953418,13127.2671241475,13156.6017717543,13153.0358878839
49,7.83260939855245,161.037082390074,153.204472991521,-157.120777690798,3.91630469927622,3812.02545615152,7470.84643931151,7477.8735351862,7482.42293324994,7482.97282916779,7484.60923484748,7477.21416038505
50,-21.1445298434992,-77.4568549387914,-56.3123250952922,66.8845900170418,-10.5722649217496,2088.1800325542,4232.67239020369,4237.16552848101,4215.80406522332,4221.56233080127,4231.66838134572,4238.2984094189
51,-0.0233052477415185,-36.082961054839,-36.0596558070974,36.0713084309682,-0.0116526238707593,1050.67746819298,2137.41459219306,2132.99972238342,2141.02108148742,2133.28940622194,2144.67242926176,2140.47282755055
52,8.72588310434367,-33.7617328664637,-42.4876159708074,38.1246744186356,4.36294155217183,387.684173094371,817.855962159549,824.248962273647,820.341362530569,806.299215350562,816.620674593898,833.213444417488
53,10.9153118602699,-54.4203521343588,-65.3356639946287,59.8780080644938,5.45765593013493,29.5356514247833,124.406966844195,125.893126589886,113.404995648132,115.040949417307,108.597772153473,103.025445144507
54,5.31029845416197,-151.665778443188,-156.97607689735,154.320927670269,2.65514922708098,1.98615777766099,160.948392452672,155.118619701767,152.473265307694,153.074653530086,159.384105576784,154.802041271963
55,-7.2457876423432,-42.040889229771,-34.7951015874278,38.4179954085994,-3.6228938211716,88.0023295323626,210.799760652153,207.535478878417,200.280324602965,199.513167325,202.149230654177,197.639108797826
56,-11.755128048273,-4.15621015575016,7.59891789252288,-1.72135386838636,-5.87756402413652,63.2150565902557,118.831195287989,122.997631971608,121.639104892005,128.367335046671,138.684733601258,120.739846170647
57,-0.117642898025224,46.4238047819235,46.5414476799488,-46.4826262309361,-0.058821449012612,93.991628761607,141.441809843265,147.381003889051,157.938735835458,144.957841419324,136.509268656257,142.391438600549
58,-1.0284218894667,246.091671702132,247.120093591599,-246.605882646865,-0.51421094473335,232.483607384915,217.847121178231,204.344607531209,208.628050395055,229.261786441755,209.498618852755,222.139141138992
59,13.0431888598541,-8.92720687162364,-21.9703957314778,15.4488013015507,6.52159442992706,50.9090288101143,123.788453351706,120.529067586322,128.700388739555,134.290521145653,146.770974459971,138.416032172128
60,-10.4640120572585,-36.5937181791232,-26.1297061218647,31.361712150494,-5.23200602862926,13.4959810837754,53.1216682894155,41.6816699468764,47.5163664434222,44.5115921698452,36.7917522475473,42.3768561845936
61,-1.02862177355564,101.834466965927,102.863088739483,-102.348777852705,-0.514310886777821,64.5696228872403,26.2761570349976,32.9498410535452,26.8948357470799,50.5008438786899,20.8074988053413,33.3674980276846
62,-2.18722245961544,-54.6383819798648,-52.4511595202493,53.5447707500571,-1.09361122980772,-21.1897591958259,10.0716411285975,19.9264534344547,-3.92626954760635,10.8579927573737,-3.37996671660221,7.08735906588845
63,-0.622087264782749,-66.614604313625,-65.9925170488423,66.3035606812336,-0.311043632391375,-25.6928521225345,14.6068128037732,34.2332391903037,26.3327561463229,4.21911852172343,23.9011014062271,18.2347631503071
64,1.52803636738099,-153.389308471262,-154.917344838643,154.153326654952,0.764018183690496,-96.8719064283941,-38.8264680181455,-40.3788367812231,-26.8373528530647,-44.291239543556,-35.840609511506,-44.3193486902746
65,-6.69601753531606,-373.608619712933,-366.912602177617,370.260610945275,-3.34800876765803,-224.664806984365,-82.4170117911126,-76.5925370561017,-70.659483372554,-79.4339999663935,-82.0768540760328,-64.3678551451594
66,5.76336522391648,-317.929152464407,-323.692517688323,320.810835076365,2.88168261195824,-212.270538910016,-100.848560131708,-83.0363815507444,-97.8717148335709,-89.8712550961936,-83.0842233044095,-101.042955677054
67,3.34723516958184,-9.65434564623865,-13.0015808158205,11.3279632310296,1.67361758479092,-0.575115719810128,11.8513493762002,11.2083958236326,21.0806688282464,5.46848848921945,7.19642064726213,9.66104345099302
68,-1.03549669671338,163.301443074131,164.336939770845,-163.819191422488,-0.51774834835669,145.521274174243,126.705608577642,110.663382131053,113.921115133795,123.855138185259,134.434252057341,128.28736272626
69,-0.99302541729412,-128.81698487114,-127.823959453846,128.320472162493,-0.49651270864706,-65.7486678375135,-3.67337622118066,-18.0086174817407,-13.1602594465367,-1.58443712812732,-12.9889146754285,-2.84557215016684
70,2.92149096529465,-43.9563708852511,-46.8778618505457,45.4171163678984,1.46074548264733,-50.6069250189903,-54.3359881874349,-48.3929576175578,-40.8758628179203,-41.5538140750723,-40.7670154728112,-32.942948763317
71,6.51766926710843,-12.8902009195881,-19.4078701866965,16.1490355531423,3.25883463355422,-23.2366814924317,-27.0654927981668,-19.5894625115616,-22.1216933343094,-23.3469057403854,-21.7120008156635,-34.9061191586952
72,-3.18997606931953,0.91491573661915,4.10489180593868,-2.50990377127891,-1.59498803465976,11.4600270376686,18.8151622693986,18.933745239774,10.4138119299023,22.6355722803273,19.7149384630902,22.5032652378432
73,2.04423981739092,152.771417177719,150.727177360328,-151.749297269023,1.02211990869546,91.7519647926092,32.7767522248905,32.861588372587,28.8482109548058,39.3382305080886,28.0217475543905,30.7371273957251
74,-0.10752292937832,-182.066072872374,-181.958549942996,182.012311407685,-0.0537614646891598,-181.806786169123,-181.655022395251,-176.644271968486,-188.668825830449,-192.672378913325,-185.059929924842,-185.409007855196
75,-6.58906730913441,120.615974984947,127.205042294081,-123.910508639514,-3.2945336545672,49.8132939916395,-27.578454310802,-40.0370149797527,-35.8478296943649,-41.6713861424068,-34.0287539299752,-27.0230103591748
76,13.1350469103199,-23.7804344827309,-36.9154813930509,30.3479579378909,6.56752345515997,-108.561854216779,-180.208227040508,-170.422190446989,-165.949575967679,-166.509831331874,-163.861480053311,-168.68027690833
77,6.3510874279018,-79.9031428770686,-86.2542303049704,83.0786865910195,3.1755437139509,-103.271412888003,-120.288595471036,-115.373650694586,-121.299407014681,-116.439372448658,-128.036680862191,-130.770260379853
78,-4.38789723819355,-151.090436675295,-146.702539437101,148.896488056198,-2.19394861909677,-154.104289654759,-161.506039872416,-159.243375451566,-161.203282988863,-166.703819009126,-148.251851165813,-153.853510121407
79,5.55357289189124,-7.49594897884526,-13.0495218707365,10.2727354247909,2.77678644594562,-56.0682571748475,-99.0869924789586,-93.2682441323414,-98.1186776091345,-99.1852319603495,-106.942400951084,-107.52108077149
80,5.70819821459008,-107.906951534242,-113.615149748832,110.761050641537,2.85409910729504,-126.415012276935,-139.214874805039,-132.963385895069,-130.949266510841,-129.561304139323,-141.932179691561,-127.673284342338
81,-6.34894662187435,111.873504890333,118.222451512207,-115.04797820127,-3.17447331093717,96.148208996281,74.073966480355,59.7129923334287,67.1297815031139,67.2207487934793,60.3822859587672,57.4696931980434
82,-11.3598039731733,-22.9800692925346,-11.6202653193614,17.300167305948,-5.67990198658663,-81.2135186058149,-150.806771892268,-153.855490828253,-157.774851508468,-156.192516987241,-155.049913818075,-153.438954109151
83,1.75831561381347,-17.1121378328826,-18.870453446696,17.9912956397893,0.879157806906733,-70.7632693726482,-122.6560852986,-121.870624684147,-121.682893245539,-104.665745834442,-128.209606574615,-116.278762314003
84,4.44952354469569,-82.7512495204282,-87.2007730651239,84.9760112927761,2.22476177234785,-135.313743515493,-183.426713965862,-178.477645066276,-186.447830546589,-201.849995270517,-185.804837098054,-197.007871299749
85,-2.39403148260317,-12.3381081648113,-9.94407668220811,11.1410924235097,-1.19701574130158,-122.368087895447,-234.792099108687,-230.528559212922,-236.973843975691,-236.3143844101,-232.921632281359,-230.929715883511
86,1.5384579039237,-124.227176583518,-125.765634487441,124.996405535479,0.76922895196185,-221.21301864172,-316.660402795998,-324.748535293766,-319.509707056452,-324.002600682783,-312.776141263777,-316.370073980885
87,-10.5535746522073,-112.823315549467,-102.26974089726,107.546528223364,-5.27678732610366,-222.296306462187,-342.322872027115,-358.101286460529,-334.261953125912,-334.640159614879,-340.948870922904,-339.870911679755
88,1.91065540359705,-70.247124685382,-72.1577800889791,71.2024523871805,0.955327701798524,-195.827091104497,-319.496402120014,-311.104583765264,-321.263559611136,-315.434083107975,-319.505834187235,-325.078537054535
89,6.39744882067316,9.56683009502012,3.16938127434696,-6.36810568468354,3.19872441033658,-114.873815477215,-232.917012228776,-238.70488645829,-233.720731261594,-237.381168543565,-224.60841604392,-231.232132729841
90,-12.4284732289962,-38.4139073714032,-25.985434142407,32.1996707569051,-6.21423661449808,-750.970492869004,-1475.9555515956,-1470.19418594145,-1478.06911312795,-1457.15949909776,-1466.03388446991,-1462.74314474367
91,-2.79408130212687,229.793532382173,232.5876136843,-231.190573033236,-1.39704065106343,-1617.24470997619,-3467.07703363668,-3480.90652415165,-3472.72375539062,-3480.70857911374,-3478.29496182778,-3492.28845593383
92,-5.56343768912484,295.750281171349,301.313718860474,-298.532000015912,-2.78171884456242,-3322.41534421095,-6946.14440728238,-6949.92161630961,-6946.63953279943,-6949.29878207739,-6949.11705320908,-6946.45706994738
93,6.86983154434711,190.84119857123,183.971367026883,-187.406282799056,3.43491577217355,-6309.10940601912,-12802.1901790651,-12807.6627624303,-12798.6028591775,-12790.0340111627,-12825.6528946815,-12807.9369640109
94,-4.12723397411173,351.258126991888,355.385360966,-353.321743978944,-2.06361698705587,-11578.3954733848,-23512.1763077356,-23510.279488831,-23497.6261899847,-23476.9450224967,-23528.3935155887,-23532.2521633289
95,-9.99914355576038,692.118842223455,702.117985779216,-697.118414001336,-4.99957177788019,-28252.6875348843,-57207.4930555479,-57234.8572307697,-57173.8050139478,-57144.944855491,-57256.1333201852,-57248.1434709097
96,6.28187529309071,366.621921444021,360.34004615093,-363.480983797475,3.14093764654535,-11955.0171569853,-24270.3743601215,-24283.9096327408,-24256.6994861883,-24235.3134366934,-24286.1647045488,-24277.4864351905
97,2.90433621796547,15.5794173814065,12.6750811634411,-14.1272492724238,1.45216810898273,-6986.10582207722,-13984.8867253179,-13983.0642714278,-13976.6816486882,-13951.4358660247,-13998.2318838528,-13992.0056573145
98,8.10388221818721,106.275225933525,98.1713437153376,-102.223284824431,4.0519411090936,-4101.98867198662,-8302.14868768858,-8295.7343720911,-8288.45141856076,-8277.95847599418,-8294.75048265932,-8295.64202445254
99,-11.0447346855362,30.4059736363997,41.450708321936,-35.9283409791678,-5.52236734276812,-2416.34962670263,-4874.14996172721,-4876.2325967378,-4874.93252674915,-4869.75786330432,-4893.81998587155,-4886.00357721714
100,17.5622867955244,191.787338340102,174.225051544578,-183.00619494234,8.78114339776221,-1265.34350921662,-2704.91206997781,-2702.8360650042,-2705.10349324503,-2697.00628689979,-2705.05730448244,-2714.97383726554
101,2.64211085284478,136.768204605265,134.12609375242,-135.447149178843,1.32105542642239,-711.142399315475,-1556.41089238337,-1547.54771227337,-1549.44468080622,-1559.41825278362,-1553.75742656278,-1558.15166591026
102,-6.0921219335869,106.630013786053,112.722135719639,-109.676074752846,-3.04606096679345,-773.45204086072,-1659.62621744108,-1664.18339559811,-1655.32215903926,-1665.95680761716,-1668.94671400415,-1654.13898449665
103,2.00661401837715,231.418717973051,229.412103954674,-230.415410963862,1.00330700918857,-712.436156018783,-1654.28441599224,-1661.95536294533,-1655.40820358568,-1648.9249796877,-1654.81592204946,-1664.11824784879
104,1.02940116479294,-69.0053572201286,-70.0347583849216,69.5200578025251,0.514700582396472,-897.87487263963,-1725.71498689434,-1720.66123051045,-1717.78338445138,-1724.08207031677,-1719.44038994011,-1716.15374556996
105,5.3446045324672,-100.338598191476,-105.683202723943,103.01090045771,2.6723022662336,-915.18889228272,-1724.6945818415,-1737.07428681743,-1722.24243239895,-1726.4738142014,-1729.28490875429,-1726.53657512055
106,-7.92977389178122,-140.829697600449,-132.899923708668,136.864810654559,-3.96488694589061,-957.639034919499,-1782.37814613033,-1775.80340550555,-1785.71034347417,-1778.36267416025,-1788.35083806174,-1787.70942112186
107,-0.135444955027197,-2.59360123446095,-2.45815627943375,2.52587875694735,-0.0677224775135983,-840.989592930549,-1679.52102958167,-1684.04547523658,-1676.09655569243,-1679.7521566457,-1682.77517994455,-1683.09179223696
108,11.7038299768465,41.6701452103734,29.966315233527,-35.8182302219502,5.85191498842323,-776.046576643843,-1582.05946852121,-1573.17637900269,-1574.89176195909,-1578.12333523299,-1598.80972643301,-1561.08674939742
109,-18.1975948524487,3.7431580745033,21.940752926952,-12.8419555007276,-9.09879742622434,-812.63779334462,-1647.21633961619,-1627.17843448298,-1635.47115630572,-1630.73952334002,-1631.43023572772,-1640.11767097434
110,-5.55736554550822,8.84977941418765,14.4071449596959,-11.6284621869418,-2.77868277275411,-831.669354097074,-1677.74585315384,-1695.92681848648,-1684.84308831123,-1681.18150065315,-1676.16057572688,-1686.18459237253
111,11.6232454123965,-46.0718269750651,-57.6950723874616,51.8834496812633,5.81162270619825,-892.095093408047,-1726.49511442863,-1717.04248308737,-1717.80610113911,-1711.14366182996,-1723.0622159437,-1718.43387276982
112,9.15944147214759,88.4206630664412,79.2612215942936,-83.8409423303674,4.5797207360738,-732.325152332152,-1543.9115262586,-1552.20913948232,-1533.70256740297,-1528.87034834889,-1529.42991256612,-1541.31209392493
113,-8.7599442708306,105.562464391929,114.32240866276,-109.942436527344,-4.3799721354153,-677.572330296432,-1469.46706925562,-1477.92290073616,-1479.85001353917,-1486.11637524737,-1488.16708200384,-1480.86824633394
114,-6.16438619807013,147.255295404611,153.419681602682,-150.337488503646,-3.08219309903507,-724.444693758254,-1602.30906911919,-1613.96962342469,-1590.55918314049,-1604.82659064481,-1595.20478995002,-1597.49834117605
115,7.05920736709959,463.153422744421,456.094215377321,-459.623819060871,3.52960368354979,-459.000435333961,-1374.09508604524,-1364.63656596557,-1376.43453957658,-1375.46865183816,-1363.55842875552,-1376.60557202302
116,-3.97728093073238,91.097330608347,95.0746115390793,-93.0859710737132,-1.98864046536619,-721.202689918195,-1537.47999137547,-1543.39143729434,-1525.73256680917,-1532.54895232676,-1522.60684383512,-1537.79710431318
117,-2.31698122806847,129.052553531859,131.369534759928,-130.211044145894,-1.15849061403424,-676.450349713487,-1484.2702341869,-1491.31294242974,-1494.84233990815,-1485.65632111192,-1496.36985080209,-1498.37920304784
118,-2.40479580182,136.2702650789,138.67506088072,-137.47266297981,-1.20239790091,-664.938872293438,-1468.5528054676,-1462.97274883586,-1472.97471720362,-1481.24487278843,-1472.33709121871,-1466.1173108783
119,10.2409969625587,25.7205570878286,15.4795601252699,-20.6000586065493,5.12049848127936,-689.816605163796,-1395.11277045286,-1399.11980196013,-1407.38546451839,-1394.87599815676,-1404.46612579667,-1406.46851701295
120,-1.86545199723332,7.67083445104072,9.53628644827404,-8.60356044965738,-0.932725998616661,-771.504190881053,-1552.54466821038,-1550.51847117886,-1560.77945000309,-1542.93398719575,-1561.33985622568,-1543.08841003818
121,-6.53853780959616,-140.309455693117,-133.770917883521,137.040186788319,-3.26926890479808,-917.59380409673,-1701.41669030994,-1737.85040974876,-1718.98428158602,-1729.80702079763,-1716.65887463349,-1724.50272611206
122,-3.09785662131617,-15.2017132577894,-12.1038566364732,13.6527849471313,-1.54892831065808,-814.687807332593,-1617.27175802871,-1618.49689768362,-1621.72217821085,-1611.3304581696,-1621.45859641043,-1628.4357477657
123,10.5883826101781,96.6177486741508,86.0293660639727,-91.3235573690617,5.29419130508904,-766.405886750406,-1618.84113956479,-1596.09357400093,-1597.08691551405,-1603.47588385743,-1610.94557727224,-1604.34944774583
124,2.41177213564515,-12.7320495894528,-15.143821725098,13.9379356572754,1.20588606782258,-824.119734039079,-1633.09564635306,-1631.05570882061,-1627.94130684866,-1629.27351061525,-1618.01715935551,-1631.20956012449
125,-13.8989150973794,84.0895814583637,97.988496555743,-91.0390390070534,-6.94945754868968,-719.812115573601,-1537.61272770294,-1546.94244415883,-1545.82116233624,-1540.60038100599,-1532.84713706572,-1538.10771137319
126,-0.88069759006612,33.2911588500137,34.1718564400799,-33.7315076450468,-0.44034879503306,-768.264086815499,-1570.70003007108,-1577.31647248569,-1563.09747719674,-1576.6120015356,-1581.31732087801,-1576.53981453524
127,1.34029999843915,169.483233628329,168.14293362989,-168.813083629109,0.670149999219575,-685.484511279443,-1539.11195618878,-1529.72352051755,-1526.25938996635,-1529.36583453813,-1532.92133454754,-1535.7910463528
128,-2.08760788524523,131.712631248491,133.800239133736,-132.756435191113,-1.04380394262262,-695.244854103265,-1524.28994734026,-1520.77348173186,-1517.48225212964,-1515.81470714358,-1541.00824152277,-1515.63354671729
129,-2.92793462160626,-177.649251648429,-174.721317026822,176.185284337625,-1.46396731080313,-880.191290002171,-1585.66126297752,-1570.4641803198,-1577.42395608689,-1571.64079134207,-1578.8825724888,-1586.24432029549
130,-0.865895842842292,-21.9390951008536,-21.0731992580113,21.5061471794324,-0.432947921421146,-772.476699960956,-1523.8802006639,-1540.18249128651,-1529.89535720824,-1528.98486371874,-1540.17816030601,-1531.1155306671
131,6.54923762640101,-81.4179499762831,-87.9671876026841,84.6925687894836,3.2746188132005,-790.382183750553,-1492.79717989842,-1493.6402468048,-1487.5776106214,-1491.55332210922,-1480.52178879382,-1479.77872076244
132,5.47111243498512,-38.3565695071011,-43.8276819420862,41.0921257245936,2.73555621749256,-797.983839065739,-1552.13999618939,-1551.85671076691,-1554.83216974599,-1546.29368455071,-1537.41826761118,-1561.46534759636
133,-2.34031660587061,121.075758864987,123.416075470857,-122.245917167922,-1.17015830293531,-571.355755671742,-1266.12758681434,-1286.50674242058,-1276.03378457323,-1270.34766036048,-1271.29275915254,-1267.98860837793
134,-2.80868360569002,-183.691946351231,-180.883262745541,182.287604548386,-1.40434180284501,-851.550681742214,-1522.21810073889,-1533.46364867894,-1540.85635855928,-1548.61592929016,-1535.41160998985,-1536.69122501934
135,5.07197571540019,61.7303146193444,56.6583389039442,-59.1943267616443,2.53598785770009,-637.739207343679,-1332.1367535913,-1332.89808989843,-1327.77340958154,-1334.69717559835,-1335.3166583766,-1333.76742677242
136,-5.8828717887518,-92.3577530053444,-86.4748812165926,89.4163171109685,-2.9414358943759,-940.679530902999,-1794.8841805894,-1771.97079117619,-1782.58056493799,-1768.54903521162,-1801.25382948937,-1791.48923898497
137,-7.07050925397198,-10.5583774125844,-3.4878681586124,7.02312278559839,-3.53525462698599,-1190.56481753338,-2377.64176690814,-2372.88332671905,-2372.59456707834,-2372.65705252183,-2362.4253804365,-2374.73433983023
138,4.57347316670348,130.354365641804,125.780892475101,-128.067629058452,2.28673658335174,-1589.88841331202,-3305.55771909913,-3297.4264701159,-3298.62137941597,-3297.21514687352,-3300.60474921615,-3304.98687919765
139,-5.76755088925711,101.307663407555,107.075214296812,-104.191438852184,-2.88377544462855,-2546.09072064942,-5199.25665559564,-5203.83520480001,-5197.74999630428,-5180.98392059503,-5211.20647914789,-5199.09186700269
140,1.43597510812106,5.42714173003333,3.99116662191227,-4.7091541759728,0.717987554060528,-4187.57490656392,-8379.14097974976,-8385.35415127262,-8388.26915747696,-8361.0341139423,-8394.73902148154,-8387.65824368366
141,1.64603765434003,208.731533990969,207.085496336629,-207.908515163799,0.823018827170017,-9091.13841465846,-18389.3623256536,-18394.0214398428,-18378.3796477362,-18351.9118385137,-18389.7701268583,-18415.6670345147
142,7.70405652368208,123.289161217544,115.585104693862,-119.437132955703,3.85202826184104,-3498.10249792556,-7111.79010054498,-7101.72591215113,-7090.06388535624,-7097.07047638428,-7107.43641692467,-7108.0480297287
143,-7.47578257590067,-114.324655623495,-106.848873047595,110.586764335545,-3.73789128795033,-1858.58804443326,-3610.32721581892,-3617.11822374054,-3609.9876617617,-3624.23331064897,-3622.2652390757,-3614.73071766732
144,7.73337245095172,142.405741931318,134.672369480366,-138.539055705842,3.86668622547586,-597.329709560843,-1329.33178860205,-1324.73443514496,-1335.18240726599,-1330.63073018577,-1334.96315024735,-1334.65743905245
145,3.08772338676499,-80.9925736900186,-84.0802970767836,82.5364353834011,1.5438616933825,-255.870833805922,-427.661370535061,-430.975007751753,-429.936481455952,-429.888407186227,-432.643408931501,-422.37779775809
146,-9.3176214643172,-58.7083972364198,-49.3907757721026,54.0495865042612,-4.6588107321586,144.696691705642,338.784159183386,334.862293199549,341.495896067674,326.78580272125,337.491610900121,344.40743948918
147,-8.65226022849674,3.52565671765478,12.1779169461515,-7.85178683190316,-4.32613011424837,352.839347660934,693.500778375717,707.698209941678,711.127344931534,703.078023196111,708.597428415407,716.700676518289
148,-12.8590167904331,-21.5705597300257,-8.71154293959262,15.1410513348092,-6.42950839521654,363.051978166957,734.815499273507,718.170615679555,729.550648959412,722.370690330601,740.473285646847,731.565548137296
149,1.96889284701319,72.0046731970797,70.0357803500665,-71.0202267735731,0.984446423506597,485.832393195218,901.62900604037,890.907284834015,890.184911192948,909.311149021843,888.84224004022,898.075605582533
150,16.0046078348823,176.054067787394,160.049459952512,-168.051763869953,8.00230391744117,515.623369279594,871.197278606676,873.84095103282,888.097246628051,861.16840091403,874.829630069347,884.027480643243
151,0.820273891935358,91.2169827959442,90.3967089040088,-90.8068458499765,0.410136945967679,466.564708343329,842.732707782649,861.448383553914,858.409382121317,845.296344963659,868.567697236198,849.513999126881
152,8.24364853440784,-59.9506801461976,-68.1943286806054,64.0725044134015,4.12182426720392,1410.3597480375,2888.91382475561,2902.40239860222,2882.66324691367,2895.04169682856,2890.55145063088,2892.65168945686
153,6.99599322892027,-163.151713942963,-170.147707171884,166.649710557424,3.49799661446013,3099.4433156243,6369.03433842049,6374.94909796637,6362.15064244517,6346.73361250843,6354.42279888847,6369.03827494915
154,3.1941020214872,-203.047080519813,-206.2411825413,204.644131530556,1.5970510107436,6048.88481010095,12304.0108027432,12301.1840238173,12287.1605290102,12298.2326593308,12316.3321258925,12306.7809651883
155,6.43214936013101,-284.103282607655,-290.535431967786,287.319357287721,3.2160746800655,10987.8973183677,22266.3300687031,22270.1571658191,22243.5680158497,22230.5035659819,22291.2973193297,22267.8335247959
156,-8.92371555924183,-594.403262733802,-585.47954717456,589.941404954181,-4.46185777962091,19828.6855599119,40242.8506669984,40250.834721528,40213.0209356453,40189.2019771461,40258.7875865609,40259.2864872702
157,-1.17150451728958,-1147.79577661608,-1146.62427209879,1147.21002435744,-0.585752258644789,48177.6709172095,97501.9661065179,97529.6674199519,97441.2348805634,97385.8046924052,97584.6063330134,97544.3439954177
158,7.46695749741048,-354.856208457786,-362.323165955197,358.589687206491,3.73347874870524,19813.2067860465,39988.7367380481,40009.306130642,39959.3099318809,39933.3284969196,40024.3635894471,40013.9066520172
159,-24.6497305521043,-287.642916647485,-262.99318609538,275.318051371432,-12.3248652760522,10728.4361850742,21719.8655562438,21742.5639384151,21720.8455349904,21700.0931125973,21737.120334046,21731.6068696693
160,9.98819840163924,-80.5564620903751,-90.5446604920144,85.5505612911948,4.99409920081962,5907.17402398818,11904.8927084684,11901.0242063911,11903.8073427166,11899.1771262415,11919.4365114298,11907.2868343747
161,4.8813854631735,-95.8001769990078,-100.681562462181,98.2408697305946,2.44069273158675,2892.44607249319,5885.57370744855,5867.70194856796,5869.20053868217,5863.75416290521,5878.7348510469,5899.96357779484
162,-7.53555011577555,-159.436912379897,-151.901362264121,155.669137322009,-3.76777505788777,998.350621760736,2148.60260578559,2144.20538471811,2144.9213975085,2143.48128176661,2132.38833975937,2158.94856661218
163,5.59872823068872,-6.47462397313211,-12.0733522038208,9.27398808847647,2.79936411534436,59.8479188217025,131.769189847226,135.327951259096,129.067761007434,127.02441787874,128.292319050786,130.993720929895
164,-0.642772625520593,118.825158287975,119.467930913495,-119.146544600735,-0.321386312760296,129.647699165609,139.827467417723,144.084600737348,151.215416694846,139.642789891048,145.92027845612,145.653456340806
165,-7.76427915942622,-4.26997680036584,3.49430235906038,0.387837220652727,-3.88213957971311,31.3471420563874,59.1999817537144,51.9816819803091,63.6699043961125,66.4772018057702,61.4695582978893,54.0452427885903
166,6.38098040499608,-28.4973693815118,-34.8783497865079,31.6878595840099,3.19049020249804,26.8624681952351,88.6032861769781,94.0720002393064,83.8960042035033,87.86573389353,89.9378764311259,83.9107819115452
167,7.73847117324476,72.2061110640061,64.4676398907613,-68.3368754773837,3.86923558662238,120.928991064517,177.390342238272,178.207350458048,184.09786359212,173.444307751401,180.093741904624,182.150408090383
168,-3.61779995498364,75.4531997986778,79.0709997536615,-77.2620997761696,-1.80889997749182,99.4195775735861,119.768155393511,125.899099456437,127.035566018516,122.160168311268,125.864371554955,116.115198366548
169,-1.9248492254992,-1.3390147878963,0.585834437602898,0.376590175146703,-0.962424612749601,27.7064927455503,54.8271510534978,55.4688603603281,47.0583255456004,45.7115556807839,58.6390202615876,44.4530998042901
170,3.27837214234751,139.352151001774,136.073778859427,-137.712964930601,1.63918607117375,115.416690246813,94.7596016341995,101.804986062401,77.4059112582472,91.3712980072887,85.808578349679,97.663699833618
171,2.56703788903542,142.224803331017,139.657765441982,-140.941284386499,1.28351894451771,121.004288262382,102.350811082782,98.3185407770507,93.6669119012076,101.622869593237,91.6218511684856,96.5203780193115
172,-11.8238670568098,-64.4037875673966,-52.5799205105868,58.4918540389917,-5.91193352840492,-42.0734043621342,-31.5668882136815,-39.3834604914882,-21.8333882190636,-16.4056783345877,-27.7498540829693,-17.691775435087
173,1.67368546704529,-10.9635658402403,-12.6372513072856,11.800408573763,0.836842733522644,-18.403242545799,-24.1692337843124,-28.9365017442033,-32.1256243872922,-18.0005769407144,-20.0755544451531,-33.7797069736989
174,1.0614588582248,-114.041597902891,-115.103056761116,114.572327332004,0.530729429112398,-92.0489172475791,-68.9947777340421,-71.2814993674401,-57.0012225658284,-66.8222073341603,-63.6659118233656,-56.6544854411623
175,-3.4439990199171,-34.1185088611965,-30.6745098412794,32.3965093512379,-1.72199950995855,-18.6586120508728,-6.64271426046616,9.8140854863741,1.92022027019993,-11.739730246918,-1.80946238597971,-16.8653101956006
176,0.373970704618841,-64.7218634324381,-65.095834137057,64.9088487847475,0.186985352309421,-546.696308396407,-1028.29678265576,-1043.27193053818,-1051.24970949034,-1049.14033490847,-1036.12135967225,-1040.73032384363
177,-2.8437781681132,-80.0191548074654,-77.1753766393522,78.5972657234088,-1.4218890840566,-1404.72776415132,-2732.28015166329,-2720.69967472469,-2727.15080048592,-2738.12313120553,-2727.73060468282,-2731.76123886614
178,-2.41052664769813,85.1195605810499,87.530087228748,-86.3248239048989,-1.20526332384907,-2710.88568644377,-5509.30146011629,-5491.91312336523,-5481.97070006951,-5480.66654097429,-5524.46828489556,-5498.36415244068
179,5.49063316377578,-23.7217068486789,-29.2123400124547,26.4670234305668,2.74531658188789,-5176.4077700074,-10323.6032000023,-10338.1342554741,-10316.2571848915,-10309.4226298365,-10350.8299313522,-10339.830822469
180,6.74048146072892,195.738310541899,188.99782908117,-192.368069811535,3.37024073036446,-9344.46124788505,-18877.9203248513,-18901.1440569468,-18877.5374166847,-18861.5544158477,-18881.3675572106,-18881.9044224393
181,-1.22919408208691,410.754554853746,411.983748935832,-411.369151894789,-0.614597041043453,-22728.8189643851,-45869.6216777061,-45876.6887520143,-45844.7201333324,-45805.1850758701,-45895.5998981053,-45883.005422248
182,-9.35074903690838,119.258561281313,128.609310318221,-123.933935799767,-4.67537451845419,-9771.89850281739,-19672.406315953,-19686.7929146057,-19673.5168585476,-19663.1540322925,-19686.0265141403,-19678.7037806961
183,18.2124087900738,231.849184387771,213.636775597697,-222.742979992734,9.10620439503691,-5548.61512230367,-11310.867020205,-11309.0834936858,-11294.6924179694,-11293.3138578882,-11326.9928511835,-11311.9688223507
184,-4.90216867084382,81.1644018463267,86.0665705171705,-83.6154861817486,-2.45108433542191,-3406.51778371519,-6899.10213794754,-6913.0545586338,-6900.49482915507,-6897.91848233232,-6906.38143628364,-6915.10076258858
185,-3.39889271234279,170.996467744815,174.395360457158,-172.695914100987,-1.69944635617139,-1974.49921686418,-4123.39379418551,-4113.76166958848,-4098.62497176934,-4101.53523317509,-4107.80329713612,-4122.95072894421
186,7.07436692391639,-18.7419385375397,-25.8163054614561,22.2791219994979,3.53718346195819,-1268.84880178963,-2511.88129811781,-2528.75742895599,-2523.4663696005,-2532.22735086648,-2519.56538112336,-2515.32833024018
187,4.08449700920028,3.47742104865029,-0.607075960549992,-1.43517254405015,2.04224850460014,-814.061724241808,-1627.51637252307,-1640.68956000905,-1635.97178433984,-1620.93013141898,-1632.70150794616,-1632.73457116119
188,3.69297135507804,-158.037261143007,-161.730232498085,159.883746820546,1.84648567753902,-940.170974952329,-1718.61171740657,-1715.4018136544,-1727.69677994243,-1702.17321411805,-1720.78510683743,-1713.98263220218
189,6.64115097472677,174.887683270092,168.246532295365,-171.567107782728,3.32057548736339,-680.050925239688,-1528.34838277474,-1542.79739997262,-1534.07734994707,-1518.24412078888,-1520.38416581042,-1529.78902088272
190,-11.6451241229661,117.426874711498,129.071998834464,-123.249436772981,-5.82256206148304,-752.068773578256,-1633.20954599098,-1621.7739336518,-1620.85427746776,-1630.48202427974,-1631.82223383326,-1612.13115019628
191,-9.17452457483159,91.9096628102998,101.084187385131,-96.4969250977156,-4.5872622874158,-753.011164965181,-1607.10651731549,-1597.35002919202,-1598.67921493895,-1598.05205528977,-1602.07950819089,-1613.12182363469
192,-5.52810445104842,-16.9054167208087,-11.3773122697603,14.1413644952845,-2.76405222552421,-876.255436546067,-1741.13356082237,-1748.54632753285,-1732.81036715978,-1742.54091087027,-1739.82595156244,-1744.02160460851
193,3.07963144779205,-57.0321452046046,-60.1117766523967,58.5719609285006,1.53981572389603,-885.692917690263,-1711.27405872813,-1714.87153071832,-1715.38196395102,-1727.96094093422,-1724.66095949392,-1720.66104745099
194,3.11435177974636,-96.978834687965,-100.093186467711,98.5360105778382,1.55717588987318,-870.318974593465,-1640.54476271922,-1634.65914843461,-1633.49535993149,-1629.94162927778,-1626.10703053005,-1638.60400344792
195,-1.59017996591865,-168.391248499887,-166.801068533969,167.596158516928,-0.795089982959325,-963.616187927953,-1760.43130732194,-1749.90397414452,-1762.64996208294,-1765.8561211644,-1768.34582225938,-1758.82573858381
196,-0.141254076035693,-61.5616042211186,-61.4203501450829,61.4909771831008,-0.0706270380178466,-833.507558179568,-1605.59476621405,-1603.25829846915,-1600.24668202474,-1590.5925225229,-1594.22708070892,-1590.28884084427
197,4.95982630012441,-395.49493597282,-400.454762272944,397.974849122882,2.4799131500622,-1106.99944754108,-1813.54413280921,-1800.86030860682,-1803.04874118368,-1814.01420455863,-1827.06261597617,-1806.62833313987
198,15.6223616577336,-213.700295931281,-229.322657589015,221.511476760148,7.81118082886678,-908.457908977405,-1587.5931603658,-1582.78355758512,-1591.94141195799,-1579.19819581456,-1588.99341763041,-1590.09692317885
199,-14.987643107248,-127.433575856674,-112.445932749426,119.93975430305,-7.493821553624,-913.800608598016,-1715.15528444661,-1717.35343181217,-1714.34238543615,-1716.68477397034,-1716.5498603507,-1730.65698671126
200,-5.08540888712741,-40.1425154606986,-35.0571065735712,37.5998110171349,-2.54270444356371,-862.321952532686,-1689.5867984918,-1694.0102791088,-1683.45776064784,-1686.37569303476,-1689.92194451115,-1697.4220594122
201,0.335773085447727,-41.4098458114895,-41.7456188969372,41.5777323542134,0.167886542723863,-817.987878717351,-1594.23013853777,-1598.21170705679,-1605.35346153774,-1586.83473378778,-1607.87263652295,-1606.48159069032
202,-7.70571715707774,84.4601884231961,92.1659055802738,-88.313047001735,-3.85285857853887,-770.411249538825,-1632.98840465792,-1633.58553308083,-1622.21440231663,-1629.1175136916,-1625.66200136018,-1632.46028313439
203,-8.78443916668766,-31.1627543258655,-22.3783151591779,26.7705347425217,-4.39221958334383,-815.693865562629,-1609.00941596608,-1598.42744075489,-1603.43031575211,-1597.68344933563,-1604.54420034081,-1602.72327393846
204,10.435398984846,-67.5859886487597,-78.0213876336056,72.8036881411826,5.21769949242298,-883.866664104295,-1689.71194057498,-1691.8780741411,-1679.74535375668,-1684.22724667197,-1689.06638339983,-1682.32318229525
205,-2.67324687415385,87.304182203603,89.9774290777568,-88.6408056406799,-1.33662343707692,-734.687926542858,-1559.35328216347,-1570.49447913081,-1563.99115595204,-1559.54008937336,-1569.5390712248,-1572.36912571575
206,10.443613286101,15.5441703629913,5.10055707689025,-10.3223637199408,5.22180664305051,-811.661580240092,-1628.42371755707,-1632.67147233838,-1633.57541530539,-1633.19973088056,-1624.10073341578,-1626.90522471478
207,-0.161004765628604,-54.2028340946417,-54.0418293290131,54.1223317118274,-0.0805023828143021,-819.408134268073,-1584.77443920713,-1599.49839760302,-1592.68447471404,-1591.68035804442,-1599.84092959476,-1588.846869834
208,-0.330548312456813,-30.8317334493913,-30.5011851369345,30.6664592931629,-0.165274156228406,-843.357119784676,-1656.21305443242,-1658.16903833667,-1662.7163554875,-1657.06043087051,-1663.57692281777,-1658.97478142506
209,-7.51093414830393,19.6841585877992,27.1950927361031,-23.4396256619511,-3.75546707415197,-778.110448420877,-1583.41598957786,-1579.34354652776,-1581.47626208095,-1581.25214820507,-1580.52519266549,-1587.8061687251
210,-2.88086643893621,-13.3681439282664,-10.4872774893302,11.9277107087983,-1.4404332194681,-820.926136377879,-1631.36499526643,-1627.11417267562,-1629.18609139536,-1625.1089022526,-1629.9122960121,-1625.65848426335
211,1.33155556078418,52.4208479153458,51.0892923545616,-51.7550701349537,0.665777780392091,-767.749874561865,-1586.58904147829,-1573.06960661057,-1572.46572156658,-1585.76187776506,-1570.1166982323,-1591.89834514467
212,-1.89750435520546,-60.0350509789714,-58.137546623766,59.0862988013687,-0.948752177602728,-875.51159431033,-1692.88564199689,-1697.01980492575,-1691.3766009493,-1688.2927339859,-1685.26702442634,-1677.5592778569
213,-6.21645412602811,194.865782636596,201.082236762624,-197.97400969961,-3.10822706301406,-928.317534981732,-2057.71730672609,-2050.44696613488,-2052.72191096764,-2048.87622706723,-2049.38292895988,-2045.36748364838
214,10.2096357458213,177.960452166357,167.750816420536,-172.855634293446,5.10481787291064,-1398.91757732276,-2965.58597106606,-2965.72260521955,-2974.25578025245,-2975.03596859379,-2983.10992874138,-2983.49442253899
215,-7.45199107777444,149.913993624999,157.365984702774,-153.639989163887,-3.72599553888722,-2101.6185312991,-4360.60304730097,-4349.86479574506,-4337.29476921685,-4345.14189323602,-4360.77352066123,-4354.36040704485
216,15.1052022955555,30.4570849426091,15.3518826470536,-22.9044837948313,7.55260114777775,-3409.2267615171,-6833.80540568125,-6851.75934228027,-6837.44295308797,-6831.58937251515,-6854.07873665256,-6838.24152172485
217,-2.64251132748905,213.487606270093,216.130117597582,-214.808861933838,-1.32125566374452,-5383.55048206505,-10983.2310817277,-10985.0692542083,-10973.6070502598,-10954.3605814791,-10985.3607687312,-10994.2988472285
218,-0.171991627226816,491.92448710298,492.096478730207,-492.010482916594,-0.0859958136134082,-12090.7318413901,-24673.5601615104,-24678.0751304194,-24667.6738638651,-24644.0578119099,-24693.7059709488,-24691.296439868
219,4.36441263926099,59.4325658516318,55.0681532123708,-57.2503595320013,2.1822063196305,-4812.55627770248,-9680.18070861732,-9679.92014761397,-9671.96280423159,-9649.41806290171,-9687.95715417247,-9673.209438716
220,-0.555416525225155,146.02750222836,146.582918753586,-146.305210490973,-0.277708262612578,-2219.26063581234,-4585.10419037828,-4587.82306107171,-4580.79872530271,-4589.92534349649,-4585.49618701404,-4597.85182784908
221,6.63084454703494,13.6123701516772,6.98152560464223,-10.2969478781597,3.31542227351747,-999.059872584898,-2005.10127077444,-2004.39236324088,-1999.51355921206,-1995.72103555425,-1993.35968449115,-2004.38385595547
222,-16.3829073029628,175.276397867681,191.659305170644,-183.467851519163,-8.19145365148142,-38.9213839228032,-269.502073016251,-280.047146587545,-289.123294286925,-286.591269850644,-281.791813136428,-272.238676501031
223,-0.698736825492233,421.077703008486,421.776439833979,-421.427071421233,-0.349368412746117,594.555982531543,767.335525229108,758.019342881744,764.822996511735,760.559132541035,767.782348901848,754.592468903837
224,2.40912986098556,138.587435699621,136.178305838635,-137.382870769128,1.20456493049278,673.008457612203,1209.83860938577,1215.91234892522,1204.720934404,1204.69705387327,1211.78077864746,1218.31064037301
225,2.76040110399481,102.968541452516,100.208140348521,-101.588340900518,1.3802005519974,649.356463089149,1198.50478582978,1190.41708705432,1187.96430931549,1186.47274262275,1195.82301743241,1180.38195918204
226,6.48707570531406,15.4271354909288,8.94005978561472,-12.1835976382717,3.24353785265703,572.180938031786,1135.42181627796,1128.0290763228,1151.51160694021,1129.83578731219,1150.55520862367,1146.55152296543
227,7.9268595725589,-17.8891990893462,-25.8160586619051,21.8526288756257,3.96342978627945,542.882870657413,1111.58179997673,1098.46781319848,1103.90772918204,1099.38339716781,1098.7714524137,1094.47836699578
228,-11.923342531547,83.0932886112132,95.0166311427602,-89.0549598769867,-5.96167126577348,639.633996207456,1184.25136127215,1194.84075704659,1188.96834875771,1188.0533771975,1189.76326561373,1199.19785261111
229,-2.01404814893613,-137.974758658966,-135.960710510029,136.967734584498,-1.00702407446806,472.979492007245,1081.91969452452,1085.48746532149,1072.42504349217,1081.66097066842,1069.88661504918,1065.24934892563
230,9.31504129123641,-119.39045927141,-128.705500562646,124.047979917028,4.65752064561821,478.979122870252,1086.66374630315,1087.22428517294,1094.93273380009,1089.9202797937,1082.24568922649,1085.54567467395
231,-4.45807238560519,-6.94230087610777,-2.48422849050257,4.71326468330517,-2.2290361928026,611.647792869306,1225.77981422911,1223.52903941285,1220.15830514277,1229.70705271559,1223.52104117867,1226.46576987466
232,1.9408882521966,-171.390613054333,-173.331501306529,172.361057180431,0.9704441260983,455.366816993788,1084.06513529411,1091.87051239965,1088.67829275902,1100.41786741622,1084.01636353746,1094.79396838564
233,6.44895481114509,119.550388844509,113.101434033364,-116.325911438937,3.22447740557254,673.577903217738,1234.05437240211,1232.44874677682,1228.75283447982,1223.66560810173,1231.43112672758,1232.58149544551
234,2.89919119968545,80.5597869093763,77.6605957096908,-79.1101913095335,1.44959559984272,655.360844579191,1233.06109344869,1239.01174131173,1234.62126367216,1214.67659827106,1228.32270268761,1226.20766179202
235,-0.665631017793203,-14.1470683728694,-13.4814373550762,13.8142528639728,-0.332815508896601,572.447624812645,1158.37668698037,1149.66212684696,1150.81635536024,1164.13226510416,1165.81086078568,1160.75751419828
236,5.22447373179602,-15.8410597786133,-21.0655335104093,18.4532966445113,2.61223686589801,557.27008264912,1135.60569880865,1119.71123174651,1134.50555149629,1142.85528902605,1142.51371684205,1143.31394630714
237,-6.59120280321804,-2.40925543729099,4.18194736592704,-0.886345964318025,-3.29560140160902,550.115957097601,1096.04996682928,1110.02470804524,1114.92466893265,1105.6330001828,1109.77578157713,1114.98941146987
238,-6.76744422718184,30.8586441000807,37.6260883272626,-34.2423662136716,-3.38372211359092,1147.81927417025,2258.01246001324,2269.44817327877,2265.16944995109,2266.37683719717,2265.105224756,2265.28167184189
239,7.56986668435275,16.7419898397638,9.1721231554111,-12.9570564975875,3.78493334217637,2194.4270114699,4379.68189978439,4387.87745565348,4386.85253394707,4385.83825399715,4390.23253467653,4390.72023077539
240,0.752283990819706,-88.8539826805354,-89.6062666713551,89.2301246759453,0.376141995409853,3846.92088172417,7783.4480301197,7781.21503749458,7767.75396164658,7757.4339355313,7787.78925966329,7784.0621505825
241,9.06807238192414,-177.710621036706,-186.77869341863,182.244657227668,4.53403619096207,6575.1419986524,13337.0626907234,13330.6889019566,13317.2219554438,13313.2400334907,13336.0531478171,13334.0062675547
242,-22.2902488316759,-197.69376069284,-175.403511861165,186.548636277003,-11.1451244158379,11773.6987151532,23722.8009421675,23739.8498892108,23703.0666507343,23687.9951675106,23727.7851975898,23713.1747460555
243,3.48553673285642,-647.742007033608,-651.227543766465,649.484775400037,1.74276836642821,27730.1342325264,56111.4960088193,56121.3622918796,56088.8030482513,56012.6813891391,56145.7035362929,56134.798878788
244,3.80000985119841,-293.39850053066,-297.198510381859,295.29850545626,1.90000492559921,11582.68085619,23462.5602227619,23479.0764358382,23441.7619214821,23439.1393876951,23490.328900882,23472.4176614906
245,-3.73290211887797,-309.137855525449,-305.404953406571,307.27140446601,-1.86645105943899,6372.35340859456,13050.1117705957,13063.7621773903,13065.2616823252,13040.6882211441,13083.3431053093,13079.9497362218
246,4.37201046416885,-43.1854146453843,-47.5574251095532,45.3714198774687,2.18600523208443,3769.41912314929,7586.39567140813,7585.56054609601,7582.19028456396,7579.83434160057,7573.37062497225,7597.17171104543
247,12.7314935933391,-51.170483236463,-63.9019768298022,57.5362300331326,6.36574679666955,2011.96028819808,4087.82255322597,4081.26342554565,4082.39345393481,4092.33889419603,4084.34497207071,4085.68264435418
248,-3.6619030313741,-30.7431147199532,-27.0812116885791,28.9121632042661,-1.83095151568705,1044.74170382002,2116.56461932862,2107.24259372769,2102.02642548253,2115.88505991772,2119.71775259369,2115.17113728583
249,5.22499088232871,94.5276282639825,89.3026373816538,-91.9151328228181,2.61249544116436,520.456179725385,951.609722069115,948.400566562457,942.28063045576,950.704547450267,956.935359098687,957.701925284986
250,-3.29882425570395,37.1888006031222,40.4876248588262,-38.8382127309742,-1.64941212785197,482.810628376945,925.133631895063,935.106039152102,927.757938384777,917.583980745403,926.453090547613,923.857266730163
251,2.03579893457936,56.4932073442324,54.457408409653,-55.4753078769427,1.01789946728968,455.658845365557,856.860282321461,873.473231754004,872.416380735434,867.497471492708,860.472195032315,868.99116293012
252,-5.12990548426751,-113.615446154407,-108.485540670139,111.050493412273,-2.56495274213376,364.325063543089,837.135667756316,831.287274844915,846.181560047233,829.120466381079,839.638521151588,840.221512740973
253,1.42167927825358,-92.2839027023874,-93.705581980641,92.9947423415142,0.710839639126789,388.459487141066,870.624556262774,872.325436624786,859.971754173603,858.191488330427,857.815130279312,848.441053300281
254,-1.00975915131858,-58.8108284185582,-57.8010692672397,58.3059488428989,-0.504879575659288,394.666880011791,847.134829290822,870.020777466882,857.844003051054,858.726929283555,860.224903745635,853.466967651097
255,-10.7095057321421,-3.5504045941052,7.15910113803693,-1.80434827196586,-5.35475286607107,477.418023125414,947.676945112791,945.179925791512,926.396925456909,940.707668763673,935.822592169017,947.540351945005
256,11.8285456686281,-42.9194510202797,-54.7479966889077,48.8337238545937,5.91427283431403,451.669256340145,958.086509369197,945.531341974449,938.249085575517,941.938195155177,942.448770258197,954.682758882525
257,2.01374061006936,-24.5928001997236,-26.6065408097929,25.5996705047583,1.00687030503468,466.678175214198,959.962891238189,966.010622502363,961.673499482888,973.227813584293,971.078653559875,949.349433669035
258,-3.18983819932328,-73.8690614469233,-70.6792232476,72.2741423472617,-1.59491909966164,398.270114902567,867.219453052734,857.473521230713,876.073025583813,877.09365931261,865.242014348303,868.344950942002
259,-5.69219675756176,-150.281327461358,-144.589130703796,147.435229082577,-2.84609837878088,294.403009983987,733.395150671771,731.568112638197,745.25147104662,737.92903126264,752.830198887532,737.558251215931
260,4.93385106662754,-63.1312084982346,-68.0650595648622,65.5981340315484,2.46692553331377,380.7908094983,829.646678561461,820.21740358774,812.361634222762,816.244506635092,825.860246541532,831.052877110866
261,6.90055468599894,2.02148905879585,-4.87906562720309,1.42878828420362,3.45027734299947,451.878020463046,908.635106553294,914.146785226272,908.387285338336,895.413505042932,902.553353189171,923.664149772492
262,-7.27517949679168,29.7377950526716,37.0129745494633,-33.3753848010674,-3.63758974839584,475.945358027064,914.877741504664,925.221948257327,907.336965303839,915.315888253885,906.221210563177,925.150157314842
263,-6.33512280060677,45.0389662473463,51.374089047953,-48.2065276476496,-3.16756140030338,455.545552143289,859.717015238624,860.924069929722,857.008081811742,851.418494340876,862.129350529751,838.536974061688
264,-3.52917842671741,-36.5288352744828,-32.9996568477654,34.7642460611241,-1.7645892133587,432.572264725211,898.144186298188,891.220119959908,887.070960604324,899.318980667857,901.350643188372,901.492896926851
265,5.09126100005233,-207.872974887781,-212.964235887834,210.418605387807,2.54563050002616,265.423252007313,743.810739902459,746.240707657882,751.0127521221,752.500156117836,753.250226930773,750.107682472182
266,1.45284066122258,160.952208754316,159.499368093093,-160.225788423704,0.72642033061129,558.99580257482,958.492237056547,963.536768540682,972.586684405804,958.6438701757,959.878377450805,964.608644116466
267,-10.3652599167253,245.465028851293,255.830288768018,-250.647658809656,-5.18262995836267,625.146318919054,994.462349070091,976.709823214012,981.654096283222,976.10482