sep=, 
EKG Messung vom 29.01.2019 21.52.46
gemessen mit dem EKG Dongle der Hochschule Luzern BAT HS18

 
 , Lead1, Lead2, Lead3, aVR, aVL, aVF, V1, V2, V3, V4, V5, V6
0,-1726.09340418687,2296.83128222184,4022.92468640871,-3159.87798431528,-863.046702093436,1832.84420996547,-357.236266477765,791.666574051009,1124.73774940323,215.017343079416,-141.504364252163,3850.65097225566
1,-4734.00735863601,6298.22857202649,11032.2359306625,-8665.2322513445,-2367.00367931801,5026.24014293639,-979.75564478973,2183.4975196443,3151.00768343743,686.101512582408,-306.908472574468,10659.7285176825
2,-9676.87981488813,12870.1664586237,22547.0462735118,-17708.6063660677,-4838.43990744406,10272.4035232484,-2002.23922701494,4469.6106303271,6485.6385598473,1468.84974779645,-571.652921270722,21854.0929619771
3,-17850.8227800629,23735.9379625496,41586.7607426125,-32661.3493525811,-8925.41139003146,18947.9130128189,-3690.93471697483,8248.51479568183,11996.5000358441,2759.38823077231,-1012.16246754107,40359.7302948802
4,-32986.3137046753,43849.5666950949,76835.8803997702,-60342.7235474326,-16493.1568523376,35010.2911711951,-6815.29805737991,15228.7248274486,22151.4404825538,5084.0732554552,-1882.0045540614,74551.7052564562
5,-80841.2605487265,107477.328512202,188318.589060928,-147897.958786565,-40420.6302743633,85810.1998536936,-16698.1893535413,37239.7485812582,53864.2905618003,11847.1900555281,-5129.28118699796,182086.186907513
6,-32345.9135712591,42846.5728494087,75192.4864206678,-59019.5296350382,-16172.9567856296,34284.2966789191,-6623.89306282962,15259.6102714526,24013.7225334264,8402.31371413147,1033.60586072005,76485.1441705672
7,-17785.4288491218,23356.5289412342,41141.9577903559,-32249.243365795,-8892.71442456088,18797.3657751597,-3547.22624003642,8089.40225803496,12510.7246214243,3753.79216484676,-161.161937664448,40932.2201232857
8,-9767.74447883554,12689.0602633137,22456.8047421492,-17572.9325027315,-4883.87223941777,10330.4653506748,-1795.8740407996,4222.27093938872,6576.77849905683,1780.72689966371,-304.556646745733,22036.3094105829
9,-5009.16179154327,6245.57487115472,11254.736662698,-8750.15576692635,-2504.58089577163,5249.84012905849,-755.056404581008,1693.30378566715,2849.68881569327,443.263989716979,-553.065432965873,10520.2027692124
10,-1882.24235066136,2336.16454026072,4218.40689092208,-3277.2857155914,-941.121175330681,2085.26426809876,-47.8783547245646,347.412566627355,741.108784992866,-172.157637408414,-540.787395048622,3593.02608126322
11,133.002584400783,134.770160735904,1.76757633512079,-68.2688685355122,66.5012922003914,25.0100824774237,48.2525886197267,14.9518442637907,71.9901043955701,43.4884594415466,43.9923294098283,74.1879183200363
12,621.24765438154,120.306483302976,-500.941171078564,190.317343887794,310.62382719077,-372.15009088894,-243.359010699316,451.612473486429,579.495815423033,679.686920287302,655.167236513994,458.456296347604
13,641.265813856975,26.1978206242306,-615.067993232744,294.435086304257,320.632906928487,-462.651790414563,-310.235587596382,642.464591302857,717.142998962938,844.134764407516,767.799604504735,555.828794541901
14,430.436213772914,-56.5241738990658,-486.96038767198,271.742280785523,215.218106886457,-375.615800559692,-264.271213447404,581.401235666157,632.843120032177,732.618981064633,674.253762743032,516.413631270036
15,142.598088705897,-34.1193654396707,-176.717454145567,105.418409792619,71.2990443529484,-167.083749699502,-157.450045253438,261.69863131482,254.483974284671,332.926027486555,322.965435048521,254.85104561756
16,331.476861753606,-18.3749913627644,-349.85185311637,184.113422239567,165.738430876803,-199.106429538571,-48.3610059607724,198.666559110416,192.946634700362,225.258467725716,202.203540606095,208.121465987931
17,16.9432222608684,-33.3352766410849,-50.2784989019533,41.8068877715191,8.47161113043421,-42.5758705188918,-34.8732421358304,73.2056465967759,81.1476128483737,70.7896440179895,30.8257987073336,24.9903418296512
18,45.898369608683,-104.97674470139,-150.875114310073,127.925929505732,22.9491848043415,-29.1224287611943,92.6302567876844,135.554172588714,124.963548866752,93.4744413920747,88.7485743878998,106.254136391747
19,220.04989827862,-5.64234498221686,-225.692243260837,115.667294121527,110.02494913931,-94.7377494930182,36.2167442748002,103.30631498129,118.516520090956,68.4333641761424,43.4241040706731,41.3645207653999
20,-88.1264973926454,-203.251394663649,-115.124897271004,159.188145967326,-44.0632486963227,-65.7709119238206,-16.4169265766375,98.8604657408837,163.340099721574,75.1218029603257,48.0194402314388,111.489007426748
21,283.487412587478,-130.980033618656,-414.467446206133,272.723739912395,141.743706293739,-257.648835471449,-100.830224736764,102.678360121887,173.486364738724,46.6079226834403,7.09933334107954,58.942920362831
22,378.030771481827,-284.20045439242,-662.231225874248,473.215840133334,189.015385740914,-388.825395989849,-115.41956610545,219.442266158184,319.033937877754,64.6136781425579,85.9574034285003,103.585054130255
23,948.694504485528,-612.81940171056,-1561.51390619609,1087.16665395332,474.347252242764,-919.503177510363,-277.492448824638,472.904426838265,683.037033971969,92.1367852549059,127.927295245795,73.9486868572394
24,931.065821275359,-242.428632882724,-1173.49445415808,707.961543520404,465.53291063768,-563.341971570433,46.8105110172169,361.433732128055,462.454202387954,229.204159220647,243.683415162056,240.89700753182
25,728.795205389891,-139.423254865559,-868.21846025545,503.820857560504,364.397602694946,-385.171662925667,97.8751344041165,274.457222162553,295.289350931121,206.576993854569,186.823634757471,249.769764355853
26,674.152781130653,-10.6336152835224,-684.786396414175,347.710005848849,337.076390565326,-286.64723051043,111.491935393316,198.072005668529,214.457412185435,155.170470347802,174.564272545734,227.596393766269
27,356.302887346804,-47.5249629241052,-403.827850270909,225.676406597507,178.151443673402,-141.448212748747,120.931424773415,139.239928159868,151.947376709202,120.438304832705,113.367574031262,205.430874126636
28,691.892717750034,75.5574511534164,-616.335266596617,270.3889077216,345.946358875017,-210.16197906927,196.011308458077,178.416947898517,180.807333043864,171.307928581179,172.984134026626,223.489453491745
29,892.08370525858,48.2834902159843,-843.800215042596,397.758362413306,446.04185262929,-270.239540970973,303.321133100649,247.144321700012,253.625034583822,235.604476400997,217.851299510068,323.381357727232
30,853.689077151459,-77.0408133131091,-930.729890464568,503.885351888838,426.844538575729,-254.520461293074,421.688967878419,326.350608365954,301.822033412539,294.862931889641,288.919916770885,337.746737279381
31,978.807582731244,-0.231247737415742,-979.038830468659,489.635039103038,489.403791365622,-370.686620289242,237.665589890176,305.816786569748,302.104221963032,273.073960494983,264.864137192699,311.711176590375
32,907.121578419788,-227.490387824294,-1134.61196624408,681.051177034187,453.560789209894,-391.642895524247,351.326175195586,424.235492887633,449.96677601738,451.391150461439,463.042051914289,525.204078168877
33,1304.4078137198,-131.851570105446,-1436.25938382524,784.055476965345,652.203906859899,-474.290140672349,487.679102480547,462.660761739348,381.399976249778,342.597521317131,336.173784887249,479.24270425404
34,714.421747284516,-123.101873020985,-837.523620305501,480.312746663243,357.210873642258,-241.704717745491,354.114184814518,260.845119439807,118.563925038545,17.6636054124049,44.407643726972,234.321748912186
35,371.080289630548,121.131005996608,-249.94928363394,64.4091388186657,185.540144815274,-51.4985908689687,146.952101896002,-116.62345475793,-350.910964858359,-515.124226501081,-477.839208689433,-205.090582499399
36,-124.48306518246,20.6447317471957,145.127796929656,-82.8862643384259,-62.2415325912302,107.749026731492,70.3702565333282,-437.121955960521,-781.381879802452,-1047.16257871566,-935.373753777895,-445.435650222558
37,-885.380148351104,331.075058242675,1216.45520659378,-773.765132418227,-442.690074175552,782.110353274875,347.76549995597,-468.875356358087,-1573.20230190216,-2499.83447680762,-2471.60882547211,-1535.18434254419
38,-327.603399330917,-50.7478067602538,276.855592570663,-113.053892905205,-163.801699665458,378.25160511842,479.647617666178,1146.96349932946,-285.564296687877,-1446.58975007907,-1395.05958178502,-755.700270036432
39,1630.00005447758,-1004.56813984465,-2634.56819432224,1819.56816708344,815.000027238792,-1379.4569342269,-124.345674131569,756.799670121506,2588.59218803582,4132.43766417269,3938.57298151823,2720.39526350973
40,101.968168124082,-377.68786122729,-479.656029351372,428.671945289331,50.9840840620409,-119.569511233369,240.517006884635,-105.838922237074,515.346332095639,1062.47128386458,1065.85255314879,734.711289965906
41,22.3648421579483,-265.52218225673,-287.887024414678,276.704603335704,11.1824210789741,-62.424111265298,163.038801884082,-106.372940842421,244.506000260071,522.357786318604,537.517867000634,389.220785105206
42,35.2675123477679,-204.735166489356,-240.002678837124,222.36892266324,17.633756173884,2.39815543056108,244.798989698246,-125.163340625497,86.8238634088702,228.117381978216,247.827869203241,247.83993118902
43,-138.566005662156,-165.07130778545,-26.5053021232934,95.7883049543716,-69.2830028310782,106.809662064948,240.124626253189,-193.438391331163,-64.8340052857293,1.22420051679899,-5.40514846911579,73.2422845738151
44,2.08443307884272,-93.991371724288,-96.0758048031307,95.0335882637094,1.04221653942136,103.079699400166,302.235203603462,-242.979526966144,-167.878487267201,-171.261551292287,-135.055928334283,37.3032911996265
45,-83.9991559678115,-75.350785374791,8.64837059302045,33.3512073908853,-41.9995779839057,169.882416658551,331.116462724081,-304.319476888945,-295.146300127792,-373.311983793596,-336.696186650013,-68.4961569092106
46,87.6283430871349,72.983936649282,-14.6444064378529,-29.1697651057145,43.8141715435675,178.10870145285,370.861809343553,-428.573517488005,-475.030461210387,-590.8237233934,-548.317851214507,-272.150802883219
47,314.123338576949,-114.820155994134,-428.943494571083,271.881825282608,157.061669288474,-68.0686446084009,292.806205354281,75.8931843746877,75.6925266552246,-15.0668024833084,-0.726867198966493,124.92188155318
48,881.845550975779,-105.040831755785,-986.886382731564,545.963607243675,440.922775487889,-467.633178435969,51.6200258596259,761.364451607328,789.350273821094,811.343767274615,799.984836185481,707.774623837864
49,974.978966533298,-152.309591729597,-1127.2885582629,639.799074996246,487.489483266649,-609.641546545285,-91.9945348276741,894.411309760619,924.626088910001,1026.42342316795,972.897413221283,779.530983405833
50,697.949592929145,-272.999938877197,-970.949531806342,621.97473534177,348.974796464573,-517.520622114534,-64.0917124227256,752.649180397479,772.05222473251,886.624714151753,829.589587318512,654.860127941521
51,432.664989725855,-202.13015933662,-634.795149062475,418.462654199547,216.332494862928,-355.10375830462,-75.4123675467644,488.739118789739,487.75801164678,554.205500461433,516.755048508019,414.237020676999
52,301.561973181771,-98.2728219848182,-399.834795166589,249.053808575703,150.780986590885,-190.810742373888,18.2133104188126,287.228474344772,276.990719760026,310.89691102019,271.730852917584,257.744230620238
53,235.656208470158,-133.37162275437,-369.027831224529,251.19972698945,117.828104235079,-161.192344837315,46.6431415498982,208.506619195281,166.648009702646,204.692677262864,167.155177592458,192.208751686534
54,283.115027438347,-75.2930446156652,-358.408072054012,216.850558334839,141.557513719174,-114.066189608099,130.275692837814,165.138576452566,159.033111460195,144.42860203715,115.766765526428,177.395549807841
55,188.440339669843,-99.8040292062401,-288.244368876083,194.024199041162,94.2201698349215,-87.2090883276613,113.826192220761,181.942338694946,165.787848288551,143.326056684793,124.552850255622,173.488007576141
56,253.519180407342,-107.049805653745,-360.568986061087,233.809395857416,126.759590203671,-121.079474280442,118.410037500204,155.125827147982,160.640999034935,138.332982496499,144.590542394095,193.842370720293
57,301.931859825224,-143.54854503538,-445.480404860605,294.514474947993,150.965929912612,-171.074565392547,103.331274075512,191.963211242243,180.131889214857,174.348178731005,205.037309875158,260.850006537351
58,227.483577825703,-23.7312744039282,-251.214852229631,137.47306331678,113.741788912851,-106.320180602844,38.5744910239426,114.035261701097,108.972208770106,100.611404051915,156.583887001992,146.747262635593
59,123.291429736742,-232.842956069147,-356.134385805889,294.488670937518,61.6457148683712,-104.209275611984,147.715834581922,205.235522882575,215.374392416325,215.022859160808,327.576460735578,261.313118045922
60,8.18424187692472,-236.830491757406,-245.014733634331,240.922612695868,4.09212093846236,-59.8661744691125,125.282384696106,165.248524763525,147.678361088291,161.030401140006,440.014330092449,235.205983872058
61,340.291226772357,4.98770877031302,-335.303518002044,165.157904615865,170.145613386178,-143.497247564338,48.3090228733676,50.0509569853602,76.6681173131683,54.7969079115192,148.837916737794,141.842828991115
62,120.68739980788,-84.37893968856,-205.06633949644,144.7226395925,60.3436999039402,-85.7657668851138,33.5348057262127,23.3203556113206,17.7325989974784,33.7630306380766,80.0971115998734,195.229227163631
63,196.443399835777,-178.463161732185,-374.906561567962,276.684861650074,98.2216999178884,-120.997652760158,132.911256047645,106.780170746913,77.7032010213607,96.4800792823679,111.48660740805,378.678106681736
64,165.80476851964,-386.430341312828,-552.235109832468,469.332725572648,82.9023842598201,-173.583430868455,205.068248095558,135.206628667431,119.834702771164,181.290418771847,153.203323223175,581.039901324014
65,107.726489206066,-718.714898168374,-826.441387374439,772.578142771406,53.8632446030329,-279.082106164776,268.277175044887,126.219290603589,113.854605341863,195.344993063625,134.599651740591,940.108545251477
66,692.287449848148,-1492.45711165099,-2184.74456149914,1838.60083657507,346.143724924074,-719.542585179535,745.659391140072,459.627135290186,380.993069749456,630.995902179468,385.818811325876,2349.81149278309
67,431.312212106029,-688.02978447027,-1119.3419965763,903.685890523285,215.656106053015,-308.403702347554,502.534591881191,348.738946342745,269.442140888332,369.377042547934,251.118042494529,1032.78626399655
68,367.425933726241,-385.966461344065,-753.392395070307,569.679428207186,183.712966863121,-292.023750424848,169.344894220611,203.624307743009,168.559718439667,202.465932818525,150.018692415907,614.006015127634
69,253.296078697164,-103.725007634107,-357.021086331272,230.37304698269,126.648039348582,-120.549925434986,115.9212354613,52.6173997973849,-65.474408769461,-88.9148786043149,-112.78599657541,183.059138412118
70,-4.96400843651872,15.6552052586248,20.6192136951436,-18.1372094768842,-2.48200421825936,39.421995752675,58.2247778102064,-50.9182057652805,-256.273012517888,-339.423056124025,-345.305324420142,-99.8720867632128
71,-102.494871459404,166.04391870231,268.538790161714,-217.291354432012,-51.2474357297019,180.209595001517,91.8803998413192,-90.6428717719051,-420.651307168572,-654.649301003013,-631.333268299664,-326.975158938359
72,-288.281659100594,235.116502618555,523.398161719148,-379.257332168852,-144.140829550297,329.031443968628,134.664726218107,-205.583105043158,-754.849001082949,-1150.9037704701,-1095.00956533102,-634.330972760911
73,-1334.57478913646,944.622647993689,2279.19743713015,-1611.91004256192,-667.28739456823,1313.67005006017,348.142662990199,-777.718550897004,-2466.591586201,-3783.75603914793,-3759.56700649869,-2378.51159299751
74,1757.61259974606,579.735643947182,-1177.87695579888,299.07065592585,878.806299873032,-717.854221414276,-257.83148702967,1797.92380558472,2180.76682455843,2785.69894581447,3145.10872766915,1958.43535070513
75,225.061515799893,-1090.26119158493,-1315.32270738482,1202.79194948487,112.530757899947,-729.415691977976,-143.50867657113,-663.3550843406,594.805451060757,1517.92187413874,1263.36172335301,995.100946916267
76,-99.2348928664264,-349.963237334498,-250.728344468071,300.345790901284,-49.6174464332132,-109.278308383576,32.1717277009198,-448.1396765627,62.5419642320214,418.777096070711,343.262672193067,247.960510593926
77,-167.054370402825,-249.27282686158,-82.2184564587546,165.745641660167,-83.5271852014125,17.1437759885535,116.506008435862,-349.995194060616,-77.6157557812189,125.417447986338,67.9787757580328,113.354806637304
78,-99.9654945679508,-35.3682024821182,64.5972920858326,-14.6145448018572,-49.9827472839754,88.9675028395097,113.337713593187,-406.493763893884,-279.573905638135,-181.553911198525,-260.421235183474,-120.940949260987
79,-232.108306582986,-33.659955178985,198.448351404001,-82.3941981125081,-116.054153291493,171.748761443488,145.049171482974,-539.486238618266,-494.589518077309,-439.116698430681,-652.329561625852,-259.581392801445
80,-310.697542901285,39.5135730921502,350.211115993436,-194.862344542793,-155.348771450643,286.461128444144,222.711140894852,-545.934014860934,-545.788166380245,-585.379325999931,-653.001413773047,-381.568865263926
81,-236.303424987291,141.673486137772,377.976911125063,-259.825198631418,-118.151712493645,333.640898649522,289.304886173981,-458.132340524056,-519.663660385248,-614.782288741013,-615.735613302875,-387.762907911694
82,-23.3386135111441,44.1535724413534,67.4921859524975,-55.8228791969254,-11.6693067555721,55.2373929699612,42.982599987425,45.9813798892878,48.9425336724421,3.63030107759573,46.2015041370881,5.63478884581082
83,661.479412184196,0.954272813834905,-660.525139370361,329.785433278263,330.739706092098,-468.202958247195,-275.880777124029,791.055710872041,838.804580610007,979.630733249326,1030.30311576419,641.848785508538
84,629.619735528323,-13.2650285253662,-642.88476405369,328.074896289528,314.809867764162,-475.924707071474,-308.964650089257,650.234608425603,701.164723480369,852.818138945738,1040.68867927171,539.817420275524
85,437.488177780447,19.1936639653186,-418.294513815129,199.550424924905,218.744088890224,-351.845420613839,-285.39632741255,444.453744309759,450.134490490808,561.845508686505,602.889106677027,341.646330306761
86,176.088290518639,-99.166046306405,-275.254336825044,187.210191565724,88.0441452593193,-185.847490792365,-96.4406447596873,268.672819881048,247.514818216132,319.828284538982,339.088921802575,204.258014266789
87,109.669226522261,86.6823385996026,-22.9868879226588,-31.8477253384719,54.8346132611307,-34.3703648935875,-45.7538418645162,124.75234271881,91.908124258317,118.643110576934,138.582568213996,61.9306867461542
88,89.7194102309563,-91.1081174848046,-180.827527715761,135.967822600283,44.8597051154782,-70.1323701808836,40.5627873539938,100.995234758811,111.21034166431,121.004022910352,108.275898693416,91.8505247297476
89,-75.1523603435189,-72.009777141654,3.14258320186491,34.4335969698946,-37.5761801717595,17.8301024076034,32.517621613342,55.2914630991581,65.3631973393478,59.4937226536442,23.1283197144576,34.3557964598881
90,91.315158487701,-65.089859337701,-156.405017825402,110.747438581551,45.6575792438505,-51.8133808642797,52.7782560968427,94.9603712638743,101.987197049303,129.132072127639,111.55166716639,95.0183264752986
91,65.4977704703656,-72.8583260122136,-138.356096482579,105.607211247396,32.7488852351828,-53.9511137283523,30.4538690258747,79.4425087238317,65.6430294465843,89.6501196034995,81.5070435806012,61.4033058459445
92,71.4548330719967,-47.4112857670684,-118.866118839065,83.1387023030668,35.7274165359984,-37.6227158373563,43.6206871643525,77.3847471395499,70.9705839339897,95.3780173500995,65.6145867241576,87.7035819370349
93,34.433046573949,-31.9135759376491,-66.3466225115981,49.1300992246236,17.2165232869745,-7.98985950612081,50.3669034993565,64.5713366444626,63.4938595411604,85.9275757385769,43.8987337799688,38.3061263459972
94,-29.0433616603532,-38.8944843284721,-9.85112266811893,24.3728034982955,-14.5216808301766,-12.9517493295499,-16.0523759909809,-17.2643525361815,-22.601593935341,15.398208260651,-11.6339145853288,-6.51837100401826
95,-48.464508581882,6.66858122458598,55.133089806468,-30.900835515527,-24.232254290941,29.1346329744204,3.13617614237279,2.9161345795012,-3.70494590990052,-20.046781503877,-12.3485419162949,-0.598169605663315
96,-21.969226568433,108.567856986725,130.537083555158,-119.552470270941,-10.9846132842165,54.1539090656943,-22.229265423769,-75.3171309324981,-101.141214383483,-123.711897593508,-127.350711712183,-45.2206257392286
97,168.548133115569,8.26841100887259,-160.279722106697,76.005655548912,84.2740665577846,-32.2721621315756,95.7353978435454,143.983687145118,90.7191840621254,71.6640359006324,89.2554695719762,161.527675224864
98,46.7534374549768,22.4106823600159,-24.3427550949609,0.966036367472498,23.3767187274884,24.2591267941494,72.8610086832598,76.7177024112375,-9.09021544850839,-24.7248593390185,-37.5221283738712,26.5147456862251
99,-133.813383275536,310.610042337283,444.423425612819,-377.516733975051,-66.9066916377678,185.323066613229,-73.7772923863608,-120.235540838281,-309.305443936601,-286.498115409661,-302.208317244775,-173.403838413969
100,-95.2047708949394,492.098175572764,587.302946467704,-539.700561020234,-47.6023854474697,307.266531775585,27.2301170834664,-155.920931036684,-427.771039808231,-453.134842912173,-470.222025724315,-276.014317884489
101,-471.350513906946,1025.85841615406,1497.208930061,-1261.53367310753,-235.675256953473,753.740335378839,10.2717406966735,-596.040920011702,-1238.16243651456,-1403.68421942451,-1448.74389487212,-831.771233721867
102,999.832513675912,1462.86355820637,463.031044530461,-962.947301368417,499.916256837956,472.816800763522,482.602556996584,1551.05351415068,958.844812248745,1434.10717233317,1687.26881854842,1067.09979809587
103,127.688398699809,-739.495990102748,-867.184388802556,803.340189452652,63.8441993499043,-239.544776533927,388.094835734702,-168.873037137786,358.747600415966,858.323051600921,555.516986117481,606.458665163996
104,-459.727385462493,-184.133092376194,275.594293086298,-45.730600355052,-229.863692731246,251.637630133231,227.680967180163,-1111.7603246102,-759.611790449738,-355.38097290595,-295.265035301757,-144.035011654485
105,-310.169023887976,-211.406000479417,98.7630234085595,56.3214885354287,-155.084511943988,212.740616583131,326.718209757703,-485.313119472754,-347.273038314181,-172.683741056451,-198.723279947639,-17.8621059922557
106,-103.43882792879,-8.82109798274951,94.6177299460405,-42.8983159816455,-51.719413964395,161.432807457348,228.247884968655,-474.852610385697,-404.194083351499,-340.46261559609,-376.879733657089,-205.361614826052
107,-212.96127746242,29.0286039066345,241.989881369054,-135.509242637844,-106.48063873121,271.898319793726,301.806758218398,-515.421732548931,-482.499104626859,-505.135300228017,-587.952582663542,-270.157754351012
108,-313.687011172939,75.4821118241439,389.169122997083,-232.325617410613,-156.84350558647,377.7643640564,366.359605115718,-551.18280226627,-551.029754884225,-646.377539108409,-855.333449871074,-400.13152129676
109,22.7870803522133,110.051829144476,87.2647487922627,-98.6582889683693,11.3935401761066,119.817753448998,152.370758105733,-191.718418441036,-198.518954333093,-267.173647334844,-283.571006973844,-145.938236083607
110,510.34080477209,62.0959432228506,-448.244861549239,193.074459163194,255.170402386045,-249.065033569752,-49.8852055902636,457.566635164372,517.074678446946,536.775950679748,595.566173757124,422.055008680717
111,863.188532615642,72.478180921863,-790.710351693779,359.116085385958,431.594266307821,-584.813721891774,-378.917092089769,837.783837411155,958.090330824001,1151.02498602372,1312.05588539087,820.71420641693
112,493.792480443416,82.1877020011357,-411.60477844228,164.708538220572,246.896240221708,-325.89811782593,-240.191457209581,502.524612572775,550.070877329644,641.868844706086,687.42698405158,444.167389369406
113,210.532209286072,64.412839106194,-146.119370179878,40.8532655368419,105.266104643036,-152.758486989617,-159.397603799355,236.780530830405,262.922174497216,303.765160939089,341.577528679801,260.395541110976
114,94.5247811320232,49.6128547890244,-44.9119263429989,-2.35046422301275,47.2623905660116,-66.104197844995,-87.2964693469912,93.5376792509909,92.0290531695555,123.347382674214,129.642083833459,114.121377615053
115,-5.02206820257607,-63.183008379267,-58.1609401766909,60.671974277979,-2.51103410128803,-42.8989269264774,-27.6369136762639,71.0729357876105,76.1374640914871,95.1075864344721,80.643822873252,57.4922429803732
116,75.2488990657257,-48.2455797781563,-123.494478843882,85.8700293110192,37.6244495328629,-52.4341307462806,18.6262173513207,99.4250856720859,93.6409969403339,124.535876840069,102.732127025519,106.932781134907
117,182.965318269558,38.0820098613704,-144.883308408188,53.4006492734086,91.4826591347789,-58.0807968277,28.7217147527876,82.6605952489183,100.761817625788,105.499078959105,99.1391417851063,99.4491770869772
118,191.504752527713,26.4258155527273,-165.078936974985,69.3265607111291,95.7523762638564,-55.6350918867693,53.8087532014468,119.867143532893,130.879528431293,142.166825204197,135.247410596546,180.124025759314
119,221.835651261745,-31.3488834529658,-253.184534714711,142.266709083838,110.917825630873,-98.6177961424285,55.9489424298539,115.792824320404,92.9650332912233,145.456402868665,120.123585257807,141.430176549047
120,229.463730514308,33.998980321443,-195.464750192865,80.7328849357111,114.731865257154,-63.5789813952323,68.3067874024006,105.072171205019,108.780530812337,114.537924021378,100.045814497268,103.362568025282
121,-69.455359306744,-50.2321139023529,19.223245404391,15.5044342489809,-34.727679653372,47.8568237500798,76.4904020957685,97.2846142743877,96.4535214098273,125.756794709204,95.9973487099896,119.630653666215
122,-38.6305134566919,8.51291240759201,47.1434258642839,-27.828169135938,-19.315256728346,37.3431265857662,27.5428273072486,8.48043460500742,4.58371897453367,13.1739050244979,27.3190195033188,17.5155795046662
123,-253.431613064017,66.4621208358049,319.893733899822,-193.177927367813,-126.715806532009,119.620820899194,-80.6520921014347,-148.429587913506,-178.693930301135,-164.016166812211,-171.487717254756,-124.784696999602
124,60.829812386984,199.606491651368,138.776679264384,-169.191585457876,30.414906193492,82.0505125536836,25.324345842983,-6.36115486137385,-52.9256234559132,-115.204046336712,-131.956945947794,-84.1168502873184
125,100.147326297558,212.690276658463,112.542950360905,-162.616613509684,50.0736631487789,-0.689630279422545,-113.92221091975,20.5223201355441,-20.2988031051827,-56.3931431732705,-62.9218509978718,-22.774387740948
126,-86.8617412691251,232.843456869051,319.705198138176,-276.274327503614,-43.4308706345626,76.2148823208598,-167.275433496457,-72.9305650562965,-152.02470075727,-185.962532386393,-175.081317505841,-139.911439263591
127,-220.1531227629,334.758909278693,554.912032041592,-444.835470660142,-110.07656138145,198.514424581915,-157.883182877762,-154.792080526634,-342.3966065987,-430.876372834296,-399.8412797391,-290.620851637965
128,-332.045379355483,698.380106910582,1030.42548626606,-864.402796588323,-166.022689677741,376.897378487104,-276.630729291856,-523.155466595119,-912.104877751251,-1113.31294040841,-1094.35801003192,-746.925780607266
129,293.034463091872,767.927502228438,474.893039136566,-621.410270682502,146.517231545936,404.864232228236,334.835425319906,1562.78913243635,922.293312937039,553.11147890372,758.809574101466,281.342013646941
130,-442.273424702711,-892.011609611897,-449.738184909186,670.874897260542,-221.136712351355,-312.931569772157,-176.124954635127,-1283.56620600664,-495.577914457298,-17.2028001285172,-69.0860070047809,6.70389441490715
131,-711.227314841033,-257.009888865669,454.217425975364,-98.6037685548472,-355.613657420517,210.181381024988,-33.8546639253879,-733.481027061866,-471.245608104013,-369.322766978485,-337.856807838278,-371.337588161549
132,-431.064981850264,106.203015003068,537.267996853332,-321.7355059282,-215.532490925132,276.353590848999,15.4391848446663,-639.645554191864,-467.966946865987,-491.350508728472,-480.612133544572,-605.536103591071
133,-723.679086955938,366.641931579637,1090.32101853558,-728.481475057606,-361.839543477969,509.639649337464,-71.0417198606469,-809.615924832827,-708.05733404224,-795.187742767553,-792.93541959227,-967.843189963739
134,-948.49719570501,603.015449106385,1551.5126448114,-1077.26404695889,-474.248597852505,684.88508681513,-181.742471181135,-889.901815410988,-780.490714273747,-986.004214911928,-1061.0902940606,-1545.26758493474
135,-821.165341741771,1584.93184307719,2406.09718481896,-1995.51451394807,-410.582670870886,809.097732310754,-787.901720197452,-740.083688090668,-594.402425670362,-1031.51472884335,-799.079853401467,-2844.96433208474
136,345.964118172626,717.527540975807,371.563422803181,-544.545481889494,172.982059086313,-144.89143306433,-661.346288931842,505.73447757574,610.250686761065,528.052672560904,639.698282358124,-489.228387550615
137,554.004051129593,320.987967445069,-233.016083684524,-43.9859418802721,277.002025564796,-380.798540595876,-528.580997507227,669.203982731192,729.056718026665,757.773216493793,964.587125152891,29.4410255243924
138,95.689464625852,147.403814007836,51.7143493819844,-99.5590816949104,47.844732312926,-127.918704815473,-307.55175901293,352.412375032477,369.383502133588,383.35325989431,461.499656295854,4.76611141145531
139,-42.3526420364951,22.0905277799397,64.4431698164349,-43.2668487981873,-21.1763210182476,-73.7058739869871,-211.854917790409,147.048121914054,146.463983322882,172.235718336236,210.814684687846,-53.0266572564665
140,100.265433914762,10.9867674145858,-89.2786665001759,39.1459495427951,50.1327169573808,-73.1094826904668,-56.9402988807577,148.732567582665,157.576108167664,186.964105945162,181.719692285253,39.0988339335177
141,-65.5721098050258,-80.4258776529109,-14.8537678478851,47.639822750398,-32.7860549025129,-7.38357764415534,0.086612559574462,161.248945819475,162.561443493362,168.862252079369,152.344120407755,158.764731373538
142,8.33928102603522,-6.63671740292148,-14.9759984289567,10.8063579159391,4.16964051301761,-31.9160456564358,-48.856092883915,71.5843690577486,98.3239839621801,61.6509780622346,78.19913458373,105.841365052037
143,-44.9741280009875,-6.76941698007977,38.2047110209078,-15.717647020414,-22.4870640004938,-23.6325287657722,-85.4697685524523,14.5448801088402,1.55703051095293,-14.9275753332669,-15.1627492826179,29.4281972377335
144,-169.851067978847,-0.396391390796452,169.454676588051,-84.5291425986272,-84.9255339894237,22.1130113645016,-125.228653859048,-71.1813158423391,-48.6911417030979,-55.917617921485,-44.8524748873957,3.02557685556076
145,-121.860521288902,-14.0216451935166,107.838876095385,-46.9086154509343,-60.930260644451,26.2037088224639,-55.4314584504576,21.5117067547332,22.9360895084105,3.34368142150026,16.583036661623,125.004631993927
146,-291.218782253205,-20.3273146853021,270.891467567903,-125.2820764413,-145.609391126603,109.895730974189,-51.1000056195242,-17.2999232667185,-7.21188094843842,-42.0860604593655,-21.143170439691,96.2858444207191
147,-267.403283941308,105.77952345061,373.182807391918,-239.481165421264,-133.701641970654,120.823313037903,-131.536181316111,-151.93153974704,-154.181020529646,-195.263496671918,-166.840707789156,-54.6455953665936
148,-235.152903134412,35.7539883885256,270.906891522937,-153.330439955731,-117.576451567206,114.842625920104,-41.22163968273,-49.4351203842082,-107.618065232479,-180.541495084634,-177.705023178112,-56.750899166299
149,-226.209419257625,6.95073603833907,233.160155295964,-120.055445667152,-113.104709628813,36.8578262967001,-159.444502702564,-12.3344834413384,-30.7721275983351,-70.5855421004485,-70.3691587654849,-22.1680684811545
150,-122.574953341114,197.091396216535,319.666349557649,-258.378872887092,-61.2874766705572,93.058563275036,-133.549223007577,-88.2393947402858,-182.867192314696,-289.719651836152,-333.572596912406,-164.176538818465
151,-204.206418386598,355.516907230005,559.723325616602,-457.620116423303,-102.103209193299,240.095736920907,-79.5318517747892,-175.390709941418,-360.646407994139,-516.488272703861,-571.834093225438,-268.455388785323
152,-639.702698960468,757.403027347674,1397.10572630814,-1077.25437682791,-319.851349480234,610.611687501607,-175.882351304928,-712.815251135401,-1209.01019764004,-1639.59721395705,-1810.66834879585,-1056.51627674361
153,867.989867988975,421.823840120979,-446.166027867996,12.1710938735084,433.994933994488,-60.0751380298456,326.015751808305,1890.95184871329,1805.19902375851,1724.81375588395,1619.71373166127,1110.78963465892
154,-704.089358124646,-902.276401964969,-198.187043840323,550.231722902646,-352.044679062323,-210.754589748844,-223.322135657366,-1390.57118399567,-884.81803393352,-397.039797726954,-414.930478066477,116.44520141472
155,-574.745633672002,-376.251523843726,198.494109828276,88.8787070077249,-287.372816836001,133.171056020716,67.8480022131567,-681.15813585219,-481.648892355005,-348.080371985727,-343.373914220054,24.9358984411906
156,-484.697603989159,-133.438293693591,351.259310295568,-108.910508300989,-242.348801994579,247.694503206202,144.129696116837,-689.721055117923,-602.843140121538,-581.714343690048,-527.357903191705,-170.109869012368
157,-622.926310724094,-114.92524805577,508.001062668325,-196.537907306277,-311.463155362047,333.703584756783,159.406106845241,-706.00384609994,-670.136860575456,-702.545343635025,-639.170935263475,-336.188595020604
158,-482.426612693907,-31.9028226588762,450.523790035031,-209.310483688077,-241.213306346953,277.879912021051,105.236034007071,-509.33728711834,-516.692225420165,-616.713492142776,-580.540460219163,-303.292023636169
159,235.867248734513,29.321900845523,-206.54534788899,88.6117235217334,117.933624367256,-236.394315406908,-266.243282924826,341.666073407689,370.176904837395,356.254484446716,376.864502164606,353.689891773197
160,540.759382070951,-221.080537812261,-761.839919883212,491.460228847737,270.379691035475,-625.118846740594,-488.397773597976,852.157771050567,948.129984631657,1046.05986627553,981.118965156218,823.333157191749
161,219.452919937132,-304.263720052362,-523.716639989494,413.990180020928,109.726459968566,-451.013602119909,-378.310564250325,483.690307080174,551.075124121665,535.143133181778,470.391157962689,499.68237006618
162,147.501016647813,-471.864991939878,-619.366008587691,545.615500263784,73.7505083239066,-454.925939506345,-290.485870425,363.416521182066,443.236544870231,272.422288929571,252.601169074497,405.197322280448
163,141.15254026136,-1078.14355727737,-1219.29609753873,1148.71982740805,70.5762701306799,-812.472069479752,-405.648041420777,393.57048749194,577.735811304729,72.7447711342573,3.02513710412945,455.962609619721
164,61.1405675993942,-501.706467172523,-562.847034771917,532.27675097222,30.5702837996971,-383.35693349755,-203.866832223182,174.116707820437,283.90677430429,93.7277995720567,44.9390081611679,280.000838928375
165,-124.563814374168,-333.452257765576,-208.888443391408,271.170350578492,-62.281907187084,-179.960596126442,-151.032748861476,124.45741612244,180.515632969638,79.4126747245035,28.689443999179,161.507488804064
166,-103.935393868098,-272.419690628739,-168.484296760641,220.45199369469,-51.9676969340492,-101.687845573753,-34.8913943868664,103.472178937617,159.603921152554,78.9348066335859,48.1335874160052,159.489895875337
167,-78.3618020461913,-188.009939169832,-109.648137123641,148.829038146737,-39.1809010230957,-49.9566676262812,9.73480187107862,102.279047156613,142.191734901145,86.911070415125,103.245065934577,201.785034027847
168,-242.759526575055,-160.371819660897,82.3877069141572,38.9920563733701,-121.379763287527,29.9161873055616,-22.555332303034,6.19555779020982,8.39902473125358,-2.11273754418249,-17.8693075318253,101.819879436332
169,-116.249537248304,-123.462024300274,-7.21248705196967,65.3372556761217,-58.124768624152,-17.1615621265823,-27.110637201195,-40.8611931155942,-32.0859785637128,-46.6593325606906,-59.6860296919818,90.6574079396055
170,-183.330654562126,18.7341295610313,202.064784123158,-110.399456842094,-91.6653272810631,87.4569530261833,-27.150878070791,-120.814795463231,-168.574911046152,-233.018372481218,-223.002187563195,-8.71483279926542
171,-24.6713486240678,-73.2906207253586,-48.6192721012908,60.9549464133247,-12.3356743120339,-49.0495642410857,-49.4798563808806,7.31675197779293,-38.391757119123,-121.659826956874,-78.5467721159656,204.919592780855
172,-234.478168049543,-59.426131560203,175.05203648934,-57.8129524645685,-117.239084024772,77.034445355186,-20.983145778968,-45.5510174143193,-183.27867128672,-315.084453456296,-268.805209536757,96.3665470904093
173,-97.8140609405441,90.6192102686073,188.433271209151,-139.526240738879,-48.907030470272,70.7517518784053,-46.9297674523407,-198.556841558374,-447.747126196988,-644.86942233638,-537.708000366348,-37.5530828676888
174,-377.560171814353,130.397613164116,507.957784978469,-319.177699071292,-188.780085907177,208.89291255369,-90.1719598710886,-470.122598614139,-895.197441739985,-1192.06394837224,-1030.228629567,-461.113169148477
175,-685.414280821758,771.686000268072,1457.10028108983,-1114.39314067895,-342.707140410879,868.297514447687,279.494747805544,-368.659179844496,-2005.7728196665,-3371.60330770349,-3121.79712919325,-1835.25338003609
176,1239.22704422231,-716.127768104732,-1955.35481232704,1335.74129021589,619.613522111154,-1076.4167992334,-197.478786139759,1059.6597081205,2488.09734110265,3651.68298634538,3439.95595441652,2436.4293975638
177,-399.294142691469,-173.273286834987,226.020855856482,-26.3737845107476,-199.647071345734,147.746191091251,69.4715263260204,-416.217758668171,72.6354905715907,484.570499973873,279.340488456391,384.233664768022
178,-305.731629246541,-78.573243287954,227.158385958587,-74.2925713353163,-152.86581462327,152.782586335532,78.4067867124764,-395.382670568683,-116.722034706926,43.5673221488747,2.31065120296859,192.039736676421
179,-541.317030458234,-117.731947380163,423.585083078071,-152.926567848954,-270.658515229117,279.217637442185,134.850191806298,-365.572827780957,-243.390757665455,-188.159645437348,-223.898944902848,30.0466888562364
180,-312.886605359459,-124.238781242756,188.647824116703,-32.2045214369739,-156.443302679729,216.430620683694,244.213417250684,-315.2320317302,-258.857333772731,-263.523493027504,-259.157733031008,32.3821771322264
181,-430.859252746872,5.86245935932038,436.721712106192,-221.292085732756,-215.429626373436,324.164628417883,211.607544729575,-557.459051518191,-557.095061081494,-610.992555824686,-584.438834764191,-222.294612861778
182,-398.374565995815,65.2054002221125,463.579966217927,-264.39268322002,-199.187282997907,302.870626504424,142.161286790921,-440.507165358345,-462.172889517065,-571.281952477476,-567.08743165433,-228.062736020748
183,347.509292658338,108.764406458828,-238.74488619951,64.9902398703409,173.754646329169,-197.141126165205,-155.5373661309,365.135601572379,423.492251632004,464.650832037138,463.700813735062,489.434710758457
184,380.059569214597,-81.2751015313675,-461.334670745965,271.304886138666,190.029784607299,-369.772216220918,-278.209761695871,598.089415821565,682.664125128247,803.66085758706,768.467066483754,683.578445725813
185,460.944702187385,-48.3196281216324,-509.264330309018,278.791979215325,230.472351093693,-422.291507583565,-335.318684858112,524.73869245018,554.252784427553,696.058309034819,632.545066337168,590.628876446156
186,295.124853169737,3.44969896010434,-291.675154209633,144.112727624764,147.562426584869,-260.625142009663,-229.575129809693,242.416570371205,257.52751267372,339.631395483586,311.160158898246,405.709420112972
187,75.090614159215,-96.9245430670094,-172.015157226224,134.469850146617,37.5453070796075,-102.326374742412,-32.6375922585993,111.912781472591,105.111393592169,179.539696276061,136.488827857514,380.857094941722
188,-114.752679099816,-251.541824749788,-136.789145649971,194.16548519988,-57.3763395499082,-57.1358475143501,22.5174506212713,91.5803138972024,101.70230425467,145.600547859432,102.854889927691,451.950805427415
189,-270.834340131044,-440.281106190822,-169.446766059778,304.8639361253,-135.417170065522,-36.4076600342086,96.6314459913607,127.211506864271,114.816955164529,215.378193787033,152.445351762443,731.003328471351
190,63.2483418410861,-625.867594286069,-689.115936127155,657.491765206612,31.6241709205431,-184.351683656744,320.412568813666,231.48929582618,193.605070326049,371.15613563114,308.654644716974,1237.47353819913
191,259.374418406543,-1557.19767233181,-1816.57209073835,1686.88488153508,129.687209203271,-480.358260171942,855.855570394468,511.358387613301,361.233837479222,788.01936230467,719.833999092601,2687.30095755373
192,103.243310545043,-618.385366446611,-721.628676991654,670.007021719132,51.6216552725216,-178.411955609456,364.804765772742,228.858472398148,166.263851381191,341.373409904465,196.248590520014,1169.76107335739
193,-27.8611116223065,-287.891798307327,-260.030686685021,273.961242496174,-13.9305558111532,-72.37676816006,115.277150364901,38.7366988187746,2.66667737666739,115.508318890489,-158.646378492609,585.071621526566
194,-174.430163444073,-244.806138719871,-70.3759752757983,157.591056997835,-87.2150817220363,2.66458967428738,75.7051546243731,-0.942129077277286,-42.6794495783183,30.1902572603974,-79.3146762658076,343.211427603806
195,-169.960915518222,-40.6217724476182,129.339143070603,-44.3586853114925,-84.9804577591108,84.2060590622455,39.0729750538877,-59.5485341706377,-97.1328530453734,-59.7249654263356,-105.70160881311,187.07319675585
196,-189.496033373063,8.77678420214988,198.272817575213,-103.524800888682,-94.7480166865316,134.869812701122,71.4668078270312,-83.4262012899874,-154.537536913269,-176.053309683874,-227.298799922316,2.64770494555114
197,-48.6043661269428,-65.5697510866648,-16.9653849597221,41.2675680231935,-24.3021830634714,-49.7302480940982,-82.4951112284743,-56.840939022211,-119.788822804322,-140.792260220356,-145.690336137226,47.6969439331124
198,-244.446846587204,29.9991729544522,274.446019541656,-152.222596248054,-122.223423293602,109.130483861297,-56.185051819062,-168.285397491644,-264.195974292084,-345.18584390594,-348.425116636756,-103.551469868619
199,-231.222050725741,148.057825595103,379.279876320844,-263.668850957973,-115.611025362871,189.938952034736,0.598027748627374,-277.651162190159,-454.167086168746,-598.799520926539,-544.639789007393,-232.826732717533
200,-443.534561844666,449.811924958332,893.346486802999,-671.579205880666,-221.767280922333,344.716785911842,-203.912914979315,-883.131331486753,-1222.50963564652,-1439.392028466,-1294.64401034088,-836.601629381003
201,-1165.30678696239,515.417543405715,1680.72433036811,-1098.07093688691,-582.653393481196,1043.5005029354,406.276675502689,-441.97024103688,-1568.26046216195,-2539.20446909208,-2571.95814766358,-1684.82414634063
202,1393.25988514239,-449.591052273201,-1842.85093741559,1146.2209948444,696.629942571197,-913.640153583608,15.5706302483781,1831.80468424589,2606.24062200213,3191.07874318404,3114.04469024405,2127.74387546074
203,-382.96589083763,-321.384133925881,61.5817569117489,129.901188507066,-191.482945418815,-13.3981874371122,-88.3781317859734,-836.619249164802,-259.097181834637,223.902601415317,194.864141501854,337.524580319492
204,-239.318439704133,-168.836865710933,70.4815739931996,49.1776458588668,-119.659219852066,88.9315273427984,107.381480692397,-366.793878628844,-151.761204975074,34.7129878054427,20.8291344475121,200.02355484452
205,-350.039444963001,31.3692308542913,381.408675817293,-206.388953335792,-175.019722481501,245.966719086027,110.524762354762,-530.529944975145,-404.729720657773,-318.018801712421,-290.911232466102,-46.7257697708565
206,-770.413729120227,-44.515963289854,725.897765830373,-340.69090127026,-385.206864560114,423.689630113541,121.481494396709,-676.308144219513,-601.188754348825,-590.673649886976,-564.420194949524,-281.554083953793
207,-420.621115638186,50.2351427765634,470.85625841475,-260.545700595657,-210.310557819093,357.189597596681,243.522936778611,-530.838081709834,-529.302564712254,-566.782887038315,-541.144287494484,-245.444736406419
208,67.8909519191416,152.601492099932,84.7105401807908,-118.656016140362,33.9454759595708,31.4165023572619,-21.8775354662669,35.1655632166926,15.9928539598247,-13.7502636821838,-16.0619923089273,112.850063476422
209,441.185570254439,21.7650769647175,-419.420493289721,198.827708162502,220.592785127219,-352.177341666685,-284.934190043649,520.168344498675,587.171952217583,671.511437796801,628.660597860301,530.122221760967
210,458.337934625409,-137.710279277201,-596.04821390261,366.879246589906,229.168967312705,-450.786008844929,-305.523803787248,748.987013909271,783.928925481154,922.965222909915,840.092812496962,749.588942876778
211,281.848924742255,-70.641867213239,-352.490791955494,211.566329584367,140.924462371128,-246.474061131994,-140.457330308493,405.75864461494,424.461279725798,487.498001077979,446.263037494657,511.431406082947
212,-154.742572342393,-144.83069121762,9.91188112477357,67.4594050464232,-77.3712861711967,-51.4885165839258,-112.888914292625,146.09651335531,159.433128062486,186.217739096235,169.489996413261,304.171612357619
213,-104.775544312658,-95.3681454771204,9.40739883553806,42.9803733207912,-52.3877721563292,0.351051380306757,-8.70529607492455,94.504550249358,132.407790778793,148.354082393559,120.640200930752,296.287403257496
214,-55.2176515306764,-150.928896868741,-95.7112453380641,123.320071103402,-27.6088257653382,-27.8698413158728,39.9715627063185,144.859049641012,157.288617709638,180.437644531736,133.203982641808,318.255619838443
215,124.375208798658,31.8965410582255,-92.4786677404327,30.2910633411036,62.1876043993291,-35.3121433995195,21.8543809413937,97.5692087241954,125.244655298815,132.38144841389,115.098129126624,252.980672538992
216,-106.340162432432,18.9648576817235,125.305020114155,-72.1349388979395,-53.170081216216,47.6886074814144,-29.9278051513268,-4.7884590670684,-8.59165284427559,38.3604715516962,20.5036516822926,144.834292991711
217,-26.4268626581156,64.0366094760138,90.4634721341295,-77.2500408050716,-13.2134313290578,51.5868221471343,12.7101721601391,10.0984506299038,-9.019129417042,38.8691853473155,18.2708760694505,133.657857558426
218,-110.747815157148,114.420472056066,225.168287213214,-169.79437963464,-55.3739075785741,128.381755170329,31.5952231274446,-29.2472845466248,-62.9372439229819,31.3830667720663,-4.94453471128139,50.0907111221104
219,-172.147339517804,230.381407503572,402.528747021376,-316.455077262474,-86.0736697589018,235.293947352519,68.059147683663,-72.3266958700929,-114.482543346915,24.5172809940429,16.387873332164,35.5977443743895
220,-229.272531683245,360.26683896233,589.539370645575,-474.903104803952,-114.636265841623,376.710566804186,163.881762962797,-87.0061593724979,-164.81021522173,45.8310438733895,59.6205831939403,-41.5079289897831
221,-763.012111149938,975.339704418243,1738.35181556818,-1356.84575999321,-381.506055574969,953.145478076607,167.939140585034,-456.771313071796,-625.793353891531,-130.790132163897,-75.5938298637693,-467.446190872433
222,-479.422565787416,593.021960046477,1072.44452583389,-832.733242940185,-239.711282893708,562.572893264491,52.7012606950884,-256.54252504241,-422.150040724574,-264.640441624717,-229.081218836134,-361.533392626337
223,-117.941857649649,282.254367011455,400.196224661104,-341.225295836279,-58.9709288248246,163.75107901253,-72.6940666360446,-53.5108754584711,-154.341591303632,-116.487047120058,-73.4622829696243,-117.04750292647
224,-78.6375159383756,244.090623369272,322.728139307648,-283.40938133846,-39.3187579691878,153.545355717356,-15.6374278729356,1.66100891647636,-177.49575530826,-241.350672875994,-163.33404329448,-117.909481943015
225,-203.98322662843,231.450348848477,435.433575476907,-333.441962162692,-101.991613314215,176.876617049414,-81.6803413780798,-111.726826230037,-363.337570332418,-542.351434042631,-464.183929943362,-372.324856831531
226,-410.642776831971,354.203049297987,764.845826129959,-559.524437713973,-205.321388415986,253.038360863852,-258.769104402255,-426.846606037785,-860.722409516679,-1172.62470969789,-972.22939275946,-727.806027803745
227,-606.654091466217,735.151783960127,1341.80587542634,-1038.47882969324,-303.327045733109,743.662353561433,145.518831696521,726.576321134689,-977.529507064574,-2384.53228607797,-2265.15919415446,-1556.36718383287
228,510.144464442842,-705.046241236939,-1215.19070567978,960.118473458361,255.072232221421,-666.998721800391,-118.806737921,-491.292768122503,1100.73807292011,2378.69879750335,2246.74662669659,1411.34197220774
229,-417.904708844997,-107.047782912299,310.856925932698,-101.9045715102,-208.952354422499,262.461155436823,214.065384940947,-645.260828578216,-157.203771689415,232.029562750097,251.802442104768,26.3885839213176
230,-329.390963407674,-7.68785707420466,321.70310633347,-157.007624629633,-164.695481703837,243.471716570349,165.240326807229,-529.070722582251,-262.488002459944,-84.1236660958956,-64.6989607325441,-230.109905334057
231,-485.298878741332,29.8086203252565,515.107499066589,-272.458059695923,-242.649439370666,346.803085567188,178.498672067787,-620.708119269242,-473.771595200216,-388.924419566741,-343.279492306785,-461.810316019422
232,-408.900834666459,103.377423323724,512.278257990183,-307.827840656954,-204.45041733323,376.459268407299,240.640278824415,-643.932553399131,-589.903849040056,-575.487960190535,-529.628701299083,-561.380433533246
233,-395.345236065974,120.857714704624,516.202950770597,-318.53033273761,-197.672618032987,316.499156781245,116.795362791893,-403.269055536009,-383.624865235385,-420.617242559396,-382.159367524795,-507.067578418361
234,439.812811844895,96.2667037795145,-343.54610806538,123.639702142933,219.906405922447,-233.674988239196,-123.803868413011,579.365492048176,588.505695722676,600.580836761562,591.785799336487,252.416667270262
235,574.050711358123,-57.0558579102049,-631.106569268327,344.081213589266,287.025355679061,-479.580573431233,-328.054577594139,825.038618237952,879.691894251687,992.042949331968,948.610380917431,507.023655797464
236,294.25064989571,31.1689510749625,-263.081698820747,115.956373872892,147.125324947855,-260.395148127618,-257.708597434488,375.109592215456,376.978333463781,454.226483475405,417.867354609894,121.250290474592
237,95.1955606492593,3.47129502236476,-91.7242656268945,44.1264853022649,47.5977803246296,-111.636918461311,-131.549571295728,187.487735988999,189.823218873341,230.976068476379,204.605208707528,-25.8713670320858
238,-19.7553917047244,-99.4679082505181,-79.7125165457937,89.5902123981559,-9.87769585236219,-22.9301432731941,33.8522299994055,210.151296721803,195.97307209255,199.309731063095,186.157374980652,8.71487439850262
239,-7.40021742580711,-2.83633878150113,4.56387864430599,-0.86376993140243,-3.70010871290356,-17.0833387100544,-38.7305560644149,98.2777317438956,97.2612520997734,134.895808801304,107.599878077166,-49.6191703198629
240,-90.5383663408729,-95.7276708935437,-5.18930455267082,50.4584877231073,-45.2691831704365,-19.1989653046199,-33.208626056569,116.096463863977,122.43861726439,134.914039539191,128.354222187703,-43.6109456966087
241,-134.286002612964,-1.32773386135295,132.958268751611,-65.8152674451292,-67.1430013064821,33.4003730856617,-66.1575225802879,34.8417383034491,17.4664443704232,25.8718359841557,25.64905447843,-81.3760552874674
242,-183.550087920691,-1.50733981220037,182.042748108491,-90.2677041481452,-91.7750439603456,55.0478162420309,-71.947115624429,-4.84436623930105,-39.05059337335,-11.3887476966969,6.44731327218763,-11.4630505754685
243,-114.968193126862,72.101952911416,187.070146038278,-129.586049474847,-57.484096563431,46.2381964105943,-94.5937532170894,-67.2397298924344,-77.5451244869221,-89.6058875467921,-77.4330146239369,-23.9821488249545
244,28.3849631389262,173.771075062688,145.386111923762,-159.578593493225,14.1924815694631,43.051655166018,-59.2828015917262,-27.6111977926683,-28.1082897581932,-58.429431718735,-49.214769603582,-135.386756878911
245,-248.892792427276,242.51971133337,491.412503760645,-366.966107547008,-124.446396213638,175.547762391733,-140.316978977179,-161.546452350252,-165.074578303715,-260.967790218792,-210.253138001801,-377.900645222035
246,-332.500379981468,416.095059957646,748.595439939114,-582.34524994838,-166.250189990734,261.466415071409,-225.662609796296,-219.742422162769,-253.659315800736,-443.305047808064,-405.1296107145,-796.531441503021
247,-265.33978049287,573.782913963938,839.122694456808,-706.452804210373,-132.669890246435,210.634749343006,-417.853195770796,-145.704294628905,-129.716709543485,-415.954791816868,-298.202753151026,-1100.8070638437
248,-788.630445715946,1565.18743452659,2353.81788024254,-1959.50265738457,-394.315222857973,615.336216311126,-1123.14544762029,-677.197521584991,-650.921492520054,-1266.26967887424,-1020.01845319165,-3128.29268952176
249,-601.017365911391,775.824053824797,1376.84141973619,-1076.33273678049,-300.508682955695,471.021173884153,-434.799071967881,-496.935449455673,-695.094863766046,-1138.88290395736,-1035.35715051331,-1657.5939534887
250,-1150.61680780489,938.526469426407,2089.14327723129,-1513.83487332885,-575.308403902443,966.498853961867,-156.145569307561,-1141.08090144827,-1886.18091632373,-2764.22263926312,-2651.07706222023,-2299.33108971359
251,1274.21374189117,81.1209009886761,-1193.0928409025,555.985969956911,637.106870945587,-612.271418695952,-31.4499964894062,2091.40297710075,2549.1012851759,2760.26688862264,2550.9372106957,1498.00557751933
252,-559.394602031719,-530.937356340424,28.4572456912956,251.240055324564,-279.69730101586,-71.7902028406321,-172.03765137256,-1019.90465817934,-530.485089512928,-85.964260311297,146.164537155066,71.909774995881
253,-150.546981480073,-179.453256620205,-28.9062751401325,104.179765880169,-75.2734907400363,-28.134207304329,-27.3621394685254,-494.465909142048,-320.455361764962,-174.314845339003,-89.90554296655,-32.9828635422414
254,-326.799354625307,-133.520399737794,193.278954887513,-29.8792775748591,-163.399677312653,142.718010365722,92.1570658439308,-399.656921880747,-309.568977984244,-263.239126894524,-213.798101603002,8.1985587267518
255,-244.077346953339,-77.8278645524297,166.249482400909,-44.2108089242397,-122.038673476669,157.51143064701,148.773378893112,-473.680880580504,-408.325736384276,-428.385933497577,-386.468868747955,-112.948379128754
256,-332.983462463517,-41.4434406889573,291.54002177456,-125.048290542801,-166.491731231759,188.738549935586,85.9370780966112,-386.110509178471,-359.548306947739,-409.903311285594,-377.495931131814,-90.1358781965232
257,397.946956634581,39.6988997955041,-358.248056839077,159.274578521786,198.97347831729,-339.736760263391,-321.225463687705,544.989785867633,637.917257297801,699.563455668766,692.882055375541,759.655573248851
258,402.622678873928,-23.3717147657139,-425.994393639642,224.683054202678,201.311339436964,-298.471372174537,-170.948350709433,602.197178154056,648.679451237863,701.824676415254,651.82557346698,695.24175712993
259,59.5746589393084,-5.7422064909415,-65.3168654302499,35.5295359605957,29.7873294696542,-104.458495655901,-143.600125881552,202.898734994751,189.469378186162,232.098881496703,179.102362180126,308.016548757117
260,48.1439418276173,-67.7009091742284,-115.844851001846,91.772880088037,24.0719709138086,-91.9018595581666,-67.9588681144876,146.835749455525,170.862132324859,182.629113337421,141.477487403332,277.377874680484
261,-69.1054444857955,-69.7386787751871,-0.633234289391567,35.1859565322893,-34.5527222428977,-19.4861774373548,-38.3391205853181,193.444131413703,211.376935485263,202.944075723639,163.154492461925,301.866351189456
262,193.035233918745,27.0532130414667,-165.982020877279,69.4644039179059,96.5176169593726,-110.240102616606,-54.4981843559328,113.382597737924,112.564891563919,110.772223815619,75.8859577053483,216.289112793373
263,37.7295044516695,-73.001670717556,-110.731175169225,91.8664229433907,18.8647522258348,-73.4223829390579,-36.1135907088902,38.4459960085769,56.3362576377092,49.7155716894927,26.6939238575627,163.36668725158
264,59.3866283626821,32.666218603134,-26.7204097595481,-2.97290442179292,29.6933141813411,-13.4948137343356,-0.269217709123097,39.1519334368602,55.6283560789561,63.253342540325,49.8530242819608,147.369095280745
265,-70.1843231307985,-48.7982189771542,21.3861041536443,13.706057411755,-35.0921615653992,32.3239439202142,43.2617836867842,83.2450236796731,96.7712672296666,94.2238631875731,72.9322040416622,177.84973872149
266,-47.2338954315051,-29.0590220379468,18.1748733935583,5.44207432219423,-23.6169477157525,6.47511221542371,-5.22464896271089,21.2179560563987,37.2974252703723,9.60787224105962,30.0873317138751,125.769186169053
267,-104.785602203986,25.4608710990706,130.246473303057,-77.8536722010638,-52.3928011019932,37.0090704962146,-56.2283323106278,-16.4506119015953,-23.1441803192556,-39.4649946448902,-23.2913771008117,50.5863316954587
268,-169.452443150728,-72.0055943916368,97.4468487590916,-12.7206271837274,-84.7262215753642,26.8419761248872,-43.7628965093172,-30.0510517466312,-34.0611764504806,-37.6381999148057,-57.0811163404132,6.98954257174228
269,-92.0372119599224,-3.06362886102397,88.9735830988984,-42.9549771189372,-46.0186059799612,20.132577197727,-48.7084287034445,0.0834890920792759,-31.3077509220893,-41.0588880568307,-43.2325895922149,28.7180827373682
270,-79.0245557850658,-152.446271306046,-73.4217155209803,112.933993413513,-39.5122778925329,-18.190711141933,37.0402932371144,87.6390434311178,85.3373216146244,45.8396538329028,48.5712639530286,123.785356072444
271,45.073680657355,64.5439444879034,19.4702638305484,-42.0071041592259,22.5368403286775,-28.1772404701038,-75.8247447707561,-10.3368750555961,-26.3849545552616,-67.184521634275,-36.8026470513489,39.8414761133281
272,154.518101340532,82.4846479711923,-72.0334533693394,-5.22559730092644,77.2590506702659,-32.3391688531803,7.3551156629789,107.837035174838,25.5429702541335,-60.9526141689472,-53.750948706282,9.34045119125267
273,-62.9175183523112,-1.98690755724601,60.9306107950651,-29.4718516189096,-31.4587591761556,9.68971734685826,-41.5511761013486,61.3729357688145,-78.8333471257085,-210.023860283651,-163.052884358639,-33.2848203319581
274,78.4196823395259,97.1777138193729,18.758031479847,-57.9678726496099,39.209841169763,-24.9310045618427,-68.6200406035325,50.6955372512439,-188.353715096696,-400.957302552156,-337.156899412049,-84.7854960255172
275,-151.864485634911,203.610369900627,355.474855535538,-279.542612718083,-75.9322428174555,30.1268070102852,-295.221241514968,-211.400082535115,-624.230281426461,-1008.64872245897,-808.204914067846,-311.874300801375
276,238.262833190606,610.551020116975,372.28818692637,-491.419603521673,119.131416595303,272.829850627761,173.371514329152,1413.40888123085,-98.2693288581288,-1404.63691043656,-1262.79356083946,-513.088290350979
277,814.669187161896,-1115.42917984015,-1930.09836700204,1522.7637734211,407.334593580948,-855.432789014863,219.232788972318,544.00578190698,1757.91769865544,2323.97431776549,1823.63677353683,1729.60419553412
278,-109.458931025441,-1740.09903472613,-1630.64010370069,1685.36956921341,-54.7294655127203,-877.423738938875,-124.207374177065,-942.432796547383,-123.456838915819,70.210314062591,78.5531706895987,1060.31509428572
279,-168.744437540347,-874.371398327587,-705.62696078724,789.999179557413,-84.3722187701737,-286.036887587976,133.553185611288,-372.555668452739,14.436312043822,78.824376207525,61.4399256866239,544.232582548925
280,-171.243132458548,-478.176258324701,-306.933125866154,392.554692095428,-85.6215662292739,-103.762085576992,99.4089547121694,-397.718315380135,-192.754444786712,-171.154058875952,-167.732001136664,233.524369917534
281,-306.198357812043,-231.658149236294,74.5402085757496,78.5589703302721,-153.099178906022,81.4578829491811,88.3755573226126,-419.197991646215,-304.638706241045,-298.136097026844,-295.990906052725,3.29459118215345
282,-400.560999621723,-161.121176787244,239.439822834479,-39.1593230236174,-200.280499810862,217.955191781969,196.47056072946,-522.470401721546,-450.06702530494,-492.61438622559,-473.478107065242,-73.6080123404463
283,-371.170253100776,-48.169927749494,323.000325351282,-137.415198800894,-185.585126550388,290.402031186563,257.803737021843,-463.971184829591,-453.127291768539,-577.687729292877,-547.010741899481,-114.510919533219
284,358.659134009578,-0.718517981666537,-359.377651991245,180.048084986456,179.329567004789,-286.464568777962,-213.55148556468,490.109298830511,504.998225858846,518.443568598564,493.324807633998,545.016834133515
285,495.372031722816,-202.337179512961,-697.709211235776,450.023195374368,247.686015861408,-543.735038240868,-389.76086524596,784.484046838697,811.95088823108,968.185547431358,883.015089063902,834.98415775978
286,148.402132110157,-192.511755128642,-340.913887238798,266.71282118372,74.2010660550784,-221.127681573181,-101.341475907563,402.523580694175,401.358263847063,466.657320929674,430.27522898754,506.89731493553
287,26.9041454541589,-147.055952385917,-173.960097840076,160.508025112997,13.4520727270794,-123.782519828658,-73.6049418172401,189.052085288301,181.845720585694,233.712644001757,195.180622596992,269.130744579462
288,131.201412039598,-186.719642154085,-317.921054193683,252.320348173884,65.600706019799,-151.01086924681,15.8993157000637,221.29922991852,235.328324129133,263.066531646597,236.808276342403,305.039460607172
289,-71.2971122814502,-61.2213368763714,10.0757754050787,25.5727807356463,-35.6485561407251,-40.9461874685444,-91.9681503421675,64.984902519884,81.6527300569221,114.747397263028,76.0905501858402,151.319312619727
290,-48.0363224226599,-138.343828364349,-90.3075059416892,114.325667153019,-24.0181612113299,-53.9180487132849,-17.5285914848806,88.4842863860587,104.240142402419,118.580976961697,96.2978408525636,172.453211654921
291,31.3577359706078,-93.2718891754012,-124.629625146009,108.950757160705,15.6788679853039,-59.5141171497665,5.60139084647591,50.9451722142146,34.115610572029,66.1933887701143,42.4842175311671,196.184901668485
292,-12.313920849776,-85.7683861469245,-73.4544652971485,79.6114257220365,-6.15696042488798,-46.4857706840526,-19.5170760709566,9.19556081077121,-8.50070296689523,35.2758338971391,-14.9831888928225,188.930844744717
293,-20.4269935596021,-66.0493996205828,-45.6224060609807,55.8359028407817,-10.2134967798011,-25.9357129936289,-6.24901992627707,-0.254485310714585,-3.05913069118969,13.1698527019383,-3.83442679058584,195.884112279766
294,-90.1052275535344,-127.365346649184,-37.2601190956498,82.312732872417,-45.0526137767672,-30.461732527399,-23.6633459591482,-4.49185392290576,-3.97057932060443,17.47361667014,-0.894008048174872,224.139691996847
295,-95.168076583233,-38.6277004953818,56.5403760878512,-8.95633779623472,-47.5840382916165,23.0293596237342,-10.4816568403828,-68.3254908869599,-122.559294193219,-143.781321179943,-150.514602017363,113.346227520364
296,84.2647166515812,-67.9506231271257,-152.215339778707,110.082981452916,42.1323583257906,-41.6873586406791,68.8406224973488,75.1932050481709,-31.363452805972,-108.1107801969,-138.364454632735,118.980264994843
297,-21.0295676817041,-48.3739179113363,-27.3443502296323,37.8591340704843,-10.514783840852,34.7629097975348,96.8701698247019,60.2837550138948,-94.0600736418307,-193.262280500646,-218.044991792447,126.818931288761
298,-213.263960965881,36.6944600129609,249.958420978842,-143.326440495902,-106.631980482941,150.127463860846,50.2965067428495,-109.749517699413,-346.921823973642,-524.228893580432,-518.8962322909,-86.6804810986105
299,-575.773973594918,-105.646478774522,470.127494820396,-182.240508022937,-287.886986797459,291.162803488374,112.198112156351,-268.192320778119,-683.967223335512,-1027.22351411448,-1000.89227969117,-441.151344395937
300,-1210.38547085442,590.76553058113,1801.15100143555,-1195.95826600834,-605.192735427208,1123.35276381131,445.554526187078,-651.193894573418,-2192.09336894005,-3437.58111727866,-3396.41170296901,-2043.8012293297
301,1808.82155836581,-455.569526691723,-2264.39108505753,1359.98030587463,904.410779182905,-1246.46340187647,-228.535718695407,1300.4445563598,2485.65234043693,3516.66855174053,3395.82043694881,2461.25066921039
302,-218.871835084637,-178.359637149008,40.51219793563,68.9237196066888,-109.435917542319,0.864335185567228,-38.7835275644955,-715.431898374868,-137.817529060198,371.288324983137,498.085379628226,516.865023836715
303,-258.331592427361,-234.483880652332,23.847711775029,105.318084438651,-129.16579621368,84.1058855620305,144.364059349032,-406.138318274701,-141.19209204758,104.375521397818,151.069734246194,376.313642860532
304,-211.21334478956,-184.258826307972,26.9545184815879,78.652153913192,-105.60667239478,167.084337330687,307.214156179786,-371.554636036721,-244.905604107499,-95.9272713687507,-59.350113354275,340.316697405217
305,-331.790560948326,-286.19244147783,45.5981194704959,120.297161003667,-165.895280474163,232.132433889871,418.666748309246,-500.606552918729,-480.299223541456,-329.857464959801,-317.721453641572,400.103126674207
306,-154.545245084379,-382.049205454412,-227.503960370032,304.776582912222,-77.2726225421895,181.574239063334,590.6524384967,-352.281519506669,-385.796198848109,-228.331920239417,-275.816295003764,816.870818468578
307,374.437883838845,-1087.83420659401,-1462.27209043285,1275.05314851343,187.218941919422,-291.201426206089,879.869238020675,569.643513932695,367.586452469217,851.071299695647,639.117737274168,2684.52206896912
308,1048.43384371585,-526.050556873442,-1574.48440058929,1050.26747873137,524.216921857923,-720.222473234545,134.039454120197,1101.90698905509,1081.94915847421,1429.03460857991,1267.81591482102,1806.32564153298
309,572.634447808714,-303.39607552035,-876.030523329064,589.713299424707,286.317223904357,-454.579249533421,-33.1279757377769,681.391869231374,643.450473557604,864.341608953379,746.539784472162,938.591337371626
310,228.195201117362,-180.923986857752,-409.119187975113,295.021587416432,114.097600558681,-196.218798046065,16.681591882984,359.591910821995,327.572681640514,431.266526641884,373.440058231692,477.112569721047
311,59.1534599333963,-102.787256252279,-161.940716185676,132.363986218978,29.5767299666982,-58.4384348336054,45.0638465184648,196.715103453983,186.060713726417,251.483003503528,194.561437145194,229.726303608227
312,-15.4861423900675,-129.522543665529,-114.036401275461,121.779472470495,-7.74307119503374,-17.6382709095378,78.7598594563857,201.247790291657,174.916193774482,222.121098540013,199.709826305452,251.249737584163
313,95.9265269354305,-65.4614782252065,-161.388005160637,113.424741692922,47.9632634677153,-58.0685548717526,45.2508954171318,154.678439843727,154.49282368164,171.015461706041,152.129077405938,177.081307844482
314,26.4023612587257,-9.41173518900132,-35.814096447727,22.6129158183642,13.2011806293629,-18.014489299615,-0.214882151503048,81.8854354322442,91.6943725592475,121.612329405191,108.954667186872,132.324687610183
315,-92.1369568330701,-45.8577246274563,46.2792322056139,-0.210753789078808,-46.0684784165351,16.3625530374741,-13.5541261306657,24.5401594547537,22.5612026300521,25.3313629061988,25.366180122839,74.23973180966
316,-103.480151669634,34.2946982827975,137.774849952431,-86.0347741176145,-51.7400758348169,43.8217126640453,-50.1314246243409,-30.156292151512,-38.7830371293664,-32.2749203528211,-31.2814230584283,31.0415598549471
317,17.0216807801266,85.3744676897691,68.3527869096424,-76.8636272997057,8.51084039006332,9.33682664019673,-49.679133629249,-22.0998998999312,-27.2124554495115,-13.9363542209172,-14.4465460851476,30.4929842857773
318,105.101889750396,35.6379778002761,-69.4639119501203,16.9129670749221,52.5509448751982,-18.5792172582967,32.3054774335269,23.9399155210469,3.76263595053615,25.3645245605775,11.9187369130135,66.1846961075134
319,-106.75807488152,17.9107161177803,124.6687909993,-71.2897535585403,-53.3790374407599,58.0677398016752,-8.53331139594985,-77.0538647447339,-145.250096684894,-120.231592973976,-138.929513750139,-37.4063121080517
320,-57.7512428220948,-127.738225962974,-69.9869831408787,98.8626045519261,-28.8756214110474,36.0443425869956,142.07566831487,93.9968652980817,-7.45372727221002,-45.5734176759203,-54.2663628671632,76.3064915321966
321,-54.1987596896438,77.1643873643307,131.363147053974,-104.263767209153,-27.0993798448219,78.0847832684618,24.8064194829493,-34.3762064206045,-145.828415978898,-219.315872244505,-212.573270233547,19.8622618948002
322,-342.671001478903,26.9717966305652,369.642798109468,-198.307297370017,-171.335500739452,171.911213365664,-25.8203713781411,-196.259397812615,-422.820782790314,-556.392445675145,-540.335905511178,-179.060677552945
323,-419.461967797533,163.511272378929,582.973240176462,-373.242256277696,-209.730983898767,353.545287708578,124.117335240693,-319.614698703596,-674.33542274973,-961.124463423662,-947.341015739329,-352.312592281783
324,-1282.62722065133,808.339438538088,2090.96665918941,-1449.65304886375,-641.313610325663,1140.22076377945,189.474868369481,-1182.4124432703,-2348.48493481754,-3318.95985474802,-3238.25103224699,-1851.50238246355
325,1571.35942987148,-465.54489553234,-2036.90432540382,1251.22461046808,785.679714935741,-1031.15099754877,-25.3976696937248,1844.43053613353,2660.28276747466,3337.40078101144,3124.37783111352,2541.58929595047
326,-392.836588369745,-342.260495008932,50.5760933608135,145.842200824059,-196.418294184873,97.8826425977894,145.189191834765,-801.220933415625,-333.890101882819,154.245315966872,310.85531845922,736.451108187312
327,-410.075585956022,-140.124496682189,269.951089273833,-64.913296295822,-205.037792978011,233.68174658173,197.412403889628,-430.170608324761,-248.341755162076,-83.3968834301398,-19.7863514760403,602.530867385106
328,-420.318681460695,-76.5090484979883,343.809632962707,-133.650292232359,-210.159340730348,295.355648282605,246.901663602502,-514.675301424695,-423.06881257592,-365.536473056191,-309.504472125506,681.150648470168
329,-406.75767056619,88.8896283187364,495.647298884927,-292.268463601832,-203.378835283095,352.643932845192,209.640566805457,-507.857470977849,-486.773946713881,-505.832359242584,-450.268673016651,705.795976681582
330,48.353438080695,164.247916181726,115.894478101031,-140.071197141378,24.1767190403475,13.5879860621017,-88.7185059768274,46.7245061168414,100.056943111042,148.801896465327,186.372526812341,1230.9675404772
331,681.792878161097,120.878438723831,-560.914439437267,220.018000356718,340.896439080549,-414.292367756883,-267.670296076499,811.664659463224,910.388331062455,1119.00354309464,1061.13822027745,1829.29103888099
332,293.099626923699,293.491400073196,0.391773149496203,-146.941586611346,146.54981346185,-139.174487344589,-278.740747838675,408.877800917034,422.062037622353,633.284556777569,597.692075142043,1258.49399172145
333,82.4532335860677,635.406041887082,552.952808301014,-594.179425094048,41.2266167930338,194.548305383806,-163.856197533403,59.3709506859043,11.7696878380225,222.42476990569,215.854102524428,763.045072544086
334,-414.370052891699,1488.72737209257,1903.09742498427,-1695.91239853842,-207.18502644585,913.170785495636,-76.7558539930023,-317.676530569456,-418.720344777668,-57.2872788831203,18.8913514771813,-123.983547922335
335,-220.887081880333,616.138992720159,837.026074600492,-726.582533660325,-110.443540940166,367.964808399159,-101.096457802174,-118.753724095593,-162.34355259491,-0.176035458525632,14.6572487167851,505.574191076504
336,-124.119888821461,257.000666852762,381.120555674223,-319.060611263493,-62.0599444107304,151.607143150093,-77.906269374037,-49.6887709421003,-45.0720104203583,42.3851353334036,50.0843719748764,744.772315112935
337,47.3595107189049,205.468423598138,158.108912879233,-181.788668238685,23.6797553594524,92.3863342237454,26.6637555682581,72.2674721375018,82.4415783948143,134.955432722937,116.267615558968,894.116722444681
338,75.154150368181,141.099589141557,65.9454387733763,-103.522513957467,37.5770751840905,41.2170924533034,16.4887461332306,53.5086483295967,48.66140550409,62.5025198618414,55.7977190990354,852.615041832538
339,54.351284108368,139.960595448866,85.6093113404982,-112.784953394682,27.175642054184,18.0289312511175,-49.5514488382631,-8.60747832892548,-29.5939817658586,-17.5730645905437,-9.65663535201115,723.967412079087
340,-88.0560833989048,-12.8173466771059,75.2387367217989,-31.2106950223465,-44.0280416994524,23.2299245961042,-28.7788875295905,12.031614766864,-3.51544808357357,9.91407499205718,0.3927007786699,685.772013832735
341,-144.847910901324,87.5871620082344,232.435072909558,-160.011117458896,-72.4239554506619,90.1539663366941,-52.12714023617,-82.6838644036613,-132.816822165681,-168.971509916262,-161.949118315322,506.897577857781
342,78.2950954133535,89.3958308460251,11.1007354326716,-50.2482831393484,39.1475477066767,27.5237984668685,43.9468615010654,16.7445454224742,-106.997939335126,-193.472503940298,-216.216745671632,529.845128288055
343,-39.8017553658701,28.5013299349584,68.3030853008286,-48.4022076178935,-19.9008776829351,38.1061020416766,7.90911878252467,113.76599703636,-47.2728476599841,-192.841466562474,-168.630658099457,636.585053436983
344,-88.3944687415269,230.100483785005,318.494952526532,-274.297718155769,-44.1972343707635,119.000755348526,-80.49344182948,-90.6480605549525,-333.824787577415,-581.777924842022,-531.967387710909,392.554612317053
345,-188.809244708688,339.615961486502,528.42520619519,-434.020583840846,-94.4046223543439,240.523580626551,-47.3780449420883,-130.431491732842,-650.693259771973,-1079.72320742366,-1001.44806108735,178.178665906937
346,-791.179106140125,816.767738494879,1607.946844635,-1212.35729156494,-395.589553070063,843.912389668929,79.8779347028528,-246.113957118629,-1873.75666762356,-3240.31405633484,-3047.93559673964,-1086.51562251274
347,1021.6480664496,-675.336003424588,-1696.98406987419,1186.16003664939,510.824033224801,-962.766784059249,-228.549498244309,233.033667126239,1798.19854208176,3129.20791014411,2909.59042354703,2722.4117608338
348,-361.476162428385,-129.103463565009,232.372698863376,-51.6346176491834,-180.738081214192,206.09210215527,179.811505447165,-577.343004902821,-59.786839380761,372.566613894602,418.855895383159,1090.14415317855
349,-268.108710850488,-42.4881227850251,225.620588065462,-91.5662326402187,-134.054355425244,171.100079982697,116.579571899932,-480.63558983662,-196.491846754552,-15.5036271779597,3.01600871546534,862.316182912803
350,-554.726584269302,-49.1311355901344,505.595448679168,-228.232156544517,-277.363292134651,316.608830397451,127.622212115733,-539.365501094459,-405.239658997973,-313.904249588816,-295.039809156083,491.788481782862
351,-322.817264811206,118.821854826663,441.639119637869,-280.230487232266,-161.408632405603,337.600463261323,233.561806884776,-565.227363109419,-480.885131813221,-488.451560250201,-485.304900451734,261.732642819102
352,-243.354547457546,202.45552830876,445.810075766306,-324.132802037533,-121.677273728773,254.640186883761,63.4702980012157,-474.977338910021,-415.377971175682,-466.565943942435,-438.061680406299,213.442550645587
353,417.037779810915,162.507130786634,-254.530649024281,46.0117591188232,208.518889905457,-233.799468128757,-213.068287233234,437.6648799575,486.984145492338,465.088413649297,473.630094119023,829.8861086266
354,688.160152256324,13.1707626502025,-674.989389606122,330.90931347796,344.080076128162,-510.902453976781,-346.81551834744,792.274679704042,862.498936349364,978.882374549249,902.290926416983,1145.33759345936
355,327.876745817064,25.5151252736659,-302.361620543398,138.423247634866,163.938372908532,-294.951288296352,-287.540956049307,385.031655631949,397.531664342933,476.073670362656,433.031809205107,782.632344235414
356,163.027507683036,30.7430964339419,-132.284411249094,50.770657407576,81.5137538415179,-122.459193329815,-112.633975410537,226.086551745995,238.681001723902,272.117670176643,224.247325568398,504.567392245561
357,-74.6601683863523,-43.7234443120115,30.9367240743409,6.39336011883529,-37.3300841931762,-25.1254515355981,-81.1876271455371,156.386842719509,165.432133789057,114.855907874657,117.939275960143,334.360364382295
358,15.4301923985176,119.434698999473,104.004506600956,-111.719602800214,7.71509619925882,-11.5168829062028,-127.038272413361,81.2821923931824,149.012240935451,65.22470809687,77.8695669582843,142.995871889106
359,17.9655684546256,233.528138467227,215.562570012601,-224.545354239914,8.98278422731278,-8.29757812249417,-232.157726257589,37.089801152883,91.2928140108043,-47.0510992904414,6.97637617350129,-79.5762300412716
360,-193.009012684097,372.018069095659,565.027081779755,-468.522575437707,-96.5045063420484,66.5921698515154,-431.842742076725,-74.1459290023657,39.2345439200167,-218.082735076748,-146.124476752312,-597.847942915764
361,-498.050052076246,833.858351268115,1331.90840334436,-1082.88337730624,-249.025026038123,165.40236559699,-1001.10367215038,-306.592952359296,-108.887155147561,-711.507257978016,-498.633610684748,-2173.68527509089
362,-266.20346455495,353.467778277497,619.671242832448,-486.569510554973,-133.101732277475,88.769952002156,-442.131338828136,-125.200804248486,-31.5465046249351,-292.123898554818,-189.719725168538,-532.75059478582
363,-132.313969466824,195.428655158098,327.742624624922,-261.58563989151,-66.1569847334122,47.1154724831692,-233.511679658583,-77.9130976204581,-21.3555222938548,-179.537737486706,-123.978088647008,-53.8187006231519
364,-65.6780571469726,186.308562326451,251.986619473423,-219.147590899937,-32.8390285734863,46.2404210440398,-159.505777385344,-118.173727659346,-84.0543213906203,-198.404512767605,-137.375876914645,127.842139970106
365,-96.4267375963668,169.195148155708,265.621885752075,-217.408516953891,-48.2133687981834,84.1785809964923,-97.2647237590903,-66.2493740830074,-123.037749355384,-209.623443623502,-207.711125305548,200.405816674969
366,328.844456899018,86.7338501624581,-242.110606736559,77.6883782870507,164.422228449509,-183.281572148526,-124.452537560492,94.5471117632554,57.4530650106954,12.0779788363,45.1059274673358,544.786718245411
367,69.4404467372829,160.192487794544,90.7520410572611,-125.472264425902,34.7202233686414,-4.32525032247702,-99.4025417022151,-20.8198094734819,-87.5601936394728,-156.412645909875,-113.571217588165,478.001937871821
368,145.516864898653,234.770353233389,89.2534883347357,-162.011920784062,72.7584324493266,23.1457238244481,-42.9620406858396,-19.0640958299318,-161.70498491599,-287.96314051371,-210.830687164961,461.517447992585
369,-128.501521330562,540.137107035492,668.638628366054,-604.387867700773,-64.2507606652812,223.696361337217,-221.24590569162,-383.318333724221,-737.634543673577,-941.931863495749,-736.262243105257,110.983890318625
370,406.586477916294,680.223997635488,273.637519719193,-476.93075867734,203.293238958147,337.047402761027,400.457285802861,1553.21050893784,614.319121440153,53.5379222296713,179.844530590038,691.02374006511
371,-349.502746663585,-965.614614229883,-616.111867566297,790.86324089809,-174.751373331793,-375.434649826021,-134.757432085744,-1178.4800249076,-205.026839541329,375.019906231945,147.63604404392,869.132265884359
372,-360.246365892119,-328.775642774176,31.4707231179432,148.652459828116,-180.123182946059,84.6209657700793,137.771208422215,-628.454118824804,-284.392377290295,-148.36587934188,-181.150642314118,604.931575518899
373,-295.751870704441,-88.7830015283434,206.968869176097,-59.0929338238768,-147.87593535222,163.345185380414,119.721501584732,-571.575589910542,-357.548321773447,-319.812350135616,-329.84738674878,578.171955885711
374,-486.182295135764,-96.9978166792935,389.18447845647,-146.093330888588,-243.091147567882,288.350730948942,187.516983441413,-598.586326700665,-493.035523600842,-495.146745229371,-485.530221561017,704.495361882077
375,-448.767264638556,-2.00734599586531,446.759918642691,-222.376286323413,-224.383632319278,338.18546561996,229.61101259723,-641.626189839253,-564.629346383497,-625.543163458386,-602.9120824723,665.634828542811
376,-248.807455691679,-33.804127519003,215.003328172676,-90.5996003268363,-124.403727845839,149.271413614987,83.5394990572983,-214.04832126457,-189.906772217526,-273.962531681118,-227.639660202826,1007.26882616598
377,716.095638816302,137.568792670059,-578.526846146243,220.479026738092,358.047819408151,-437.598874040546,-296.67090193485,722.116599080085,743.23191683971,761.842623418686,746.392829071302,1557.71270924863
378,612.472972075343,-28.2136738784229,-640.686645953765,334.450159916094,306.236486037671,-478.756043175561,-316.825440397357,757.172580716477,772.789361326316,870.831359347675,808.997031150076,1582.63522875424
379,242.11327058291,-197.00600805432,-439.11927863723,318.062643345775,121.056635291455,-277.863085044543,-116.606891451856,452.813937223726,481.433686607205,499.510532738632,484.022295289833,1285.28308974188
380,165.999204535071,-71.684763437845,-237.683967972916,154.684365705381,82.9996022675355,-130.160234485569,-22.6365009982211,259.421678746134,268.180534883871,279.878583009018,232.706509327628,923.108744217325
381,25.0222486523408,-86.5405180864932,-111.562766738834,99.0516424126636,12.5111243261704,-106.036849073763,-100.510931408692,129.002914176315,104.993445152338,112.240584152988,84.646183232256,745.482059258125
382,97.8820231791406,-108.769317574775,-206.651340753916,157.710329164345,48.9410115895703,-107.550427026166,-8.4495132984174,151.500391464302,187.259403467026,158.175388746567,128.177729060352,778.988020194724
383,99.9557538612726,-70.9631532346611,-170.918907095934,120.941030165297,49.9778769306363,-89.4772056051517,-8.03550411436976,131.521364221449,152.881822235054,132.932184680404,134.529162205756,620.031627896608
384,59.3383671535598,-141.530074475874,-200.868441629434,171.199258052654,29.6691835767799,-73.8548116922166,53.1588182450004,154.101168860932,146.801704224286,140.626361872705,140.450271133711,615.127442433488
385,22.1437328129605,-173.610866054536,-195.754598867496,184.682732461016,11.0718664064802,-111.834637983098,-27.914677098699,45.95848510458,57.3718677654408,35.7177027018242,42.0956717304936,587.368095259946
386,81.5687436817184,-305.171824121913,-386.740567803632,345.956195962772,40.7843718408592,-176.218763390894,34.3030410218435,83.1696082459025,108.561956105998,81.4466453676986,80.4425516274344,801.483810746386
387,5.85950111922557,-450.915500649649,-456.775001768875,453.845251209262,2.92975055961278,-213.5957514754,29.5834988180746,115.305679424981,130.013479888579,62.3839111180525,50.3852649538322,916.782885894722
388,96.3520862916994,-694.067999127414,-790.420085419113,742.244042273263,48.1760431458497,-358.245204732167,73.9296759547782,134.524179241432,134.896872401482,-30.5833321356514,-83.4810274560755,1168.09403558774
389,584.79345079014,-1720.67061237207,-2305.46406316221,2013.06733776714,292.39672539507,-1026.62857308487,252.206916992476,546.736394439336,558.257185463595,224.863280774423,64.2524764805204,2318.57914753237
390,332.03618145219,-482.866807516205,-814.902988968396,648.884898242301,166.018090726095,-388.74984364343,37.403301681535,126.994545548581,24.8284875623056,-177.619248264984,-232.397703179257,1240.6285107679
391,-2.24373429664001,-348.114037859878,-345.870303563237,346.992170711557,-1.12186714832001,-117.252929556262,111.364444450713,-10.446134586266,-190.532543901343,-418.785795356814,-445.70896680055,824.241627997671
392,-359.227941392815,-146.586078465021,212.641862927794,-33.0278922313864,-179.613970696407,157.538064075403,102.434265223012,-264.73896205978,-624.582141712725,-979.36456958319,-969.240292993079,126.346508410524
393,-1188.48096640723,584.582759148204,1773.06372555544,-1178.82324235182,-594.240483203617,1024.53274995805,276.001774360655,-1034.79638368318,-2271.46352772381,-3336.09154237012,-3276.76568397349,-1515.88212962032
394,1592.25432858926,-537.540069281046,-2129.7943978703,1333.66723357567,796.127164294628,-1149.9845055917,-170.174613313095,1794.16626433979,2663.35216179534,3420.86235878109,3221.45629974536,2678.52119689814
395,-264.120921222509,-330.05373562573,-65.9328144032211,197.993275014476,-132.060460611254,-43.6792932661199,-21.4257721290188,-711.103975782153,-193.546357788032,294.424136133651,452.818066948605,759.006050444243
396,-71.0520811531642,-188.438545868846,-117.386464715682,152.912505292264,-35.5260405765821,33.8353459271645,185.057156570011,-337.429015567685,-121.426331925568,61.2668553101193,95.7254444956342,543.620549139046
397,-265.185022774127,-68.7613299933282,196.423692780799,-63.8311813937355,-132.592511387064,170.311679719215,144.19966665763,-455.319344850703,-357.922791381015,-268.478634713986,-210.787364605541,341.629696879691
398,-471.465346286867,-60.279961555676,411.185384731191,-175.452711587758,-235.732673143434,311.886541427027,212.587698122863,-550.540753172319,-508.964063866007,-538.169413352651,-491.19254120909,119.824774636782
399,-384.366104554266,34.1655945440352,418.531699098301,-226.348646821168,-192.183052277133,311.073852040002,203.616004981702,-489.042475827315,-475.852707280242,-528.904851696766,-501.028700447841,165.752064146971
400,212.899395153839,74.4794511234436,-138.419944030395,31.9702464534757,106.449697576919,-86.7963238093216,-35.1727035882482,172.821429534485,217.999611790289,192.967857308968,186.396176735725,617.808666487495
401,651.474525785786,-77.8934562065238,-729.36798199231,403.630719099417,325.737262892893,-544.956385837906,-360.544789683502,826.374235124545,942.989558455541,1081.78817458433,1001.83122156755,1197.8516125989
402,561.150721163537,-155.615069117919,-716.765790281456,436.190429699687,280.575360581768,-450.640798417309,-184.515806553162,603.458759751367,640.873861930371,760.511424425832,700.770281570938,947.535080059586
403,186.359347151039,-30.5320791817685,-216.891426332807,123.711752757288,93.1796735755195,-189.63548660277,-162.379546872732,238.942727938405,226.573838797717,287.82314211399,255.565064855488,664.977656835468
404,217.697731895962,-90.6775980891352,-308.375329985097,199.526464037116,108.848865947981,-154.421999220284,-0.468668455471175,212.244305697505,211.632397916285,235.583747681946,178.954563418833,704.37516066231
405,-56.8339521989383,-187.430029645213,-130.596077446275,159.013053545744,-28.4169760994691,-41.3647413646607,47.8665947169532,188.123845974582,217.209187055192,234.314825758601,186.188815505706,725.792383922824
406,17.1293136293516,-175.352483726838,-192.481797356189,183.917140541514,8.5646568146758,-73.2382971283701,46.0052030994493,146.888418362831,171.085383583627,169.623567361221,147.087792172838,751.604530975316
407,64.7686459431661,-151.236751043685,-216.005396986851,183.621074015268,32.3843229715831,-66.6269831869059,82.751430613039,161.635554221928,159.398035909642,168.00893706672,175.792325407266,820.527148428248
408,101.232768912209,31.312481835746,-69.9202870764634,19.3039026203587,50.6163844561047,-43.3520539104906,-16.7838207445177,21.4540358575083,12.7028238167675,17.4447762834495,9.34394910801612,693.678214450522
409,-85.6439397617405,-49.5489486578258,36.0949911039147,6.72697877695555,-42.8219698808703,-0.959505257608924,-38.0140016191326,-3.86606682653292,-12.7638519713898,-28.8239242458853,-35.7150095923667,817.05175979488
410,54.7518878943411,-69.3134132546415,-124.065301148983,96.6893572018121,27.3759439471705,-51.0670906293108,21.9311198903611,18.2015876036976,3.94198388849441,-2.4918966473893,-11.4510802014354,938.952714545586
411,-17.7509275345469,179.170154302666,196.921081837213,-188.045618069939,-8.87546376727346,62.0902635288385,-72.7405547795356,-150.110025391577,-227.183570565529,-282.893992225187,-273.153561552556,794.114872822548
412,112.978983890824,-81.9141941372059,-194.89317802803,138.403686082618,56.4894919454121,-107.314251865173,-19.7353257023163,79.0369910234887,4.7377328696432,-27.5482191936588,-10.3528862305484,1257.2774976974
413,-99.8793147828064,-20.1605754794682,79.7187393033382,-29.779081911935,-49.9396573914032,31.3475073507431,-17.0237246018519,-45.9537100310093,-184.941322174701,-262.675732749088,-244.422040734952,1270.4538012182
414,18.8897140895215,22.3629418226583,3.47322773313681,-12.9180847778975,9.44485704476074,54.4981450679152,105.523062402694,-46.2245968803441,-343.81562446209,-457.395140414271,-432.153334241804,1530.71631243015
415,-27.799231327403,163.21039562126,191.009626948663,-177.110011284962,-13.8996156637015,127.472512877412,63.9353988061598,-385.593752919225,-866.187823845541,-1031.5962827956,-928.31265267673,1382.78854637448
416,-752.407493173111,304.103667186873,1056.51116035998,-680.307413773428,-376.203746586555,815.974326553128,575.437492746273,158.821024940819,-1551.7310533321,-2679.22782399259,-2630.05455706804,591.991177876883
417,1146.85464853952,-1556.63699485572,-2703.49164339524,2130.06431912548,573.427324269759,-893.143551770525,917.204539854186,972.925766934574,2140.48158265464,3897.79377670488,3376.19595751613,5788.89912736781
418,-76.741003681861,-341.215850314938,-264.474846633077,302.845348474008,-38.3705018409305,137.067933929751,538.61071449258,-571.293707445852,-124.228776516343,532.464103543825,453.868875354857,2640.7402510596
419,-202.931466760384,-236.594992911944,-33.6635261515603,135.129259531752,-101.465733380192,182.695636030806,399.054798213172,-331.17021266031,-114.697849904327,195.988506714405,134.181845464675,1761.20784839731
420,-475.893589104834,-174.508123118813,301.385465986021,-63.438671433604,-237.946794552417,286.933076675534,272.480687365047,-469.816986077145,-366.919129234324,-208.868586464798,-231.848462683475,1184.10902136005
421,-491.747905294376,-47.1937682133125,444.554137081064,-198.680184433876,-245.873952647188,352.181762390164,259.809387699265,-585.093689972309,-510.353729832409,-481.618112245048,-478.149115488344,829.372257702566
422,-391.718176877724,-15.6988712717593,376.019305605964,-180.160217167102,-195.859088438862,293.09854651205,210.177787418135,-367.107222652805,-341.677507144681,-367.360854855057,-375.895374983429,801.649542750122
423,501.302837367586,210.365170407874,-290.937666959711,40.2862482759185,250.651418683793,-226.141022565902,-161.344378172093,334.657209339466,359.370511264988,384.180311823055,393.139451208684,1371.94666967043
424,765.929655048078,35.1075470143674,-730.82210803371,347.857280509671,382.964827524039,-517.416683476826,-304.011258919941,782.14659445512,855.742527999427,1008.77211344837,967.893512412605,1964.6069731427
425,551.554537893838,30.1532843152231,-521.401253578615,245.623984631696,275.777268946919,-347.856871725045,-174.312489871475,462.374813136478,466.353614830564,582.292001522482,519.991620549261,1918.9460036127
426,132.151046054166,-26.3461331587728,-158.497179212939,92.4216561858557,66.0755230270829,-139.943825137073,-121.390471061206,181.104515288132,203.941799021763,284.594984319272,230.253558851242,2498.10403320669
427,60.3832646487945,-45.1030163518444,-105.486281000639,75.2946486762417,30.1916323243972,-76.2319816204256,-46.9776822402124,137.927349241717,160.155267095164,198.761876526047,147.30652458892,1639.9131143147
428,119.27579147739,-61.9614690287149,-181.237260506105,121.59936476741,59.6378957386949,-68.244978603526,44.7473032990526,202.604648325425,208.768132635797,253.788274817594,213.722436754532,1541.7128926339
429,150.456753376856,-43.4017167186003,-193.858470095456,118.630093407028,75.2283766884279,-71.7361367276894,50.3861966400773,150.744816628383,181.453312334149,212.660908066154,177.111153094198,1535.31989694256
430,29.7096578217033,-6.44182202362663,-36.15147984533,21.2966509344783,14.8548289108517,-22.3870952938804,-8.62271074243091,39.7498919401888,59.8807996761452,84.213164588419,56.7927521758175,1548.80777724103
431,-199.213364529806,-17.9148384342102,181.298526095596,-81.691843830693,-99.6066822649032,60.9630552001536,-59.3724156952889,-43.1652194179965,-39.0798397684389,-46.2467707929056,-63.0079488503134,1435.25306796826
432,292.900242334052,-33.7339497718326,-326.634192105885,180.184070938859,146.450121167026,-95.5179301872134,135.598331731458,136.678631364845,125.308050131276,144.933468131438,123.162016858971,1583.75344518701
433,26.3225053047618,-34.0008308761985,-60.3233361809603,47.1620835285794,13.1612526523809,4.54178066721752,69.4068975153953,27.3227907177608,42.1051728006598,33.4289865447993,41.9807961151589,1836.06931415366
434,99.93836478618,194.019296848779,94.080932062599,-144.050114455689,49.96918239309,92.1906333105642,90.3003345585294,30.7820052552959,-47.5524060406908,-119.229181316952,-117.037313805291,2704.60439824872
435,442.632227503815,135.290874655428,-307.341352848387,86.0252390964799,221.316113751908,-179.31447996086,-51.2876070733332,126.915435823504,74.953593947092,-10.2483473379327,6.19633714032322,1650.6865938327
436,431.61981400902,133.046248066328,-298.573565942692,82.7636589381823,215.80990700451,-121.293655169113,55.9862556044654,115.810604934436,-26.9964856235617,-133.337012557505,-97.3648224948494,1429.47729744716
437,377.698309917124,275.051872311605,-102.646437605519,-86.2027173530432,188.849154958562,-52.6425465624815,-2.63865551944423,2.1398406824494,-256.720945335109,-419.552845313017,-356.269618559294,1312.8597862968
438,191.641814853926,266.102209414806,74.4603945608801,-170.281301987843,95.820907426963,30.4753056201484,-13.5097833205833,-149.263927077935,-590.29610465648,-879.104699243098,-715.084303428514,836.524686879341
439,232.565755798689,855.836789108982,623.271033310293,-739.553911209638,116.282877899345,518.070670435247,412.870307560201,1004.96550273096,-709.983982649888,-2100.77405676871,-2044.77231860022,5.53075236075983
440,766.810037423483,-682.218398098461,-1449.02843552194,1065.6234168102,383.405018711741,-723.999587722045,1.02926007785345,-438.679984476548,1143.14906892838,2455.34296672241,2335.3364062094,2925.80518385698
441,-196.745461510856,66.6192986386577,263.364760149514,-164.992029394086,-98.3727307554282,238.05832142718,212.751882704845,-623.253407366699,-155.216306992567,259.252177735338,273.526698471081,1495.93881198831
442,-379.641030985282,74.0938088566882,453.73483984197,-263.914324349329,-189.820515492641,322.549018800454,191.363197758937,-537.344330308979,-285.636444823275,-70.9759655299719,-39.6152628136795,1501.17896983307
443,-721.775351888795,392.075360683015,1113.85071257181,-752.963036627413,-360.887675944398,600.416659558833,86.9826065458568,-727.200028990982,-597.482951524572,-503.480310559138,-430.684389140205,1139.08372083821
444,-877.130271785796,760.961652706941,1638.09192449274,-1199.52678859984,-438.565135892898,824.681672429165,11.271420365594,-973.569422982108,-928.51940400418,-840.664231265711,-716.983609900227,806.984507266501
445,-1380.24939980732,1691.28546073395,3071.53486054127,-2381.41016063761,-690.124699903659,1374.83123731377,-321.872385913737,-1058.65925455687,-1105.88472044452,-986.501192930373,-767.679314909855,-369.266621949139
446,-103.331198466216,749.992538951638,853.323737417854,-801.658138184746,-51.665599233108,238.530665205018,-376.262407007818,201.387144660025,164.791288335384,235.347674450349,307.845905790416,1233.80509683628
447,583.656084251239,368.393100065372,-215.262984185866,-76.5650579397532,291.828042125619,-321.837680985391,-428.412377784917,730.446692942943,734.724108460585,882.5381440056,875.013574287762,1933.36296833101
448,557.431818419936,149.930804959056,-407.501013460879,128.785104250911,278.715909209968,-272.138532979092,-136.776052497305,487.556743953691,477.466431329248,608.500530370743,614.32347622857,1918.67414070422
449,348.087787570454,86.8349693643936,-261.252818206061,87.2089244208335,174.043893785227,-166.29818541464,-71.3435526232202,253.379448243949,256.160410897704,281.548668387617,283.667408858223,2010.03069496993
450,144.944365823569,29.4473753865586,-115.49699043701,43.0248075252259,72.4721829117846,-85.7448711448294,-55.9927518526483,113.626339672046,135.650826227039,135.979107942653,150.93272571931,2295.73744159195
451,345.988799014401,46.4671180159148,-299.521680998486,126.527281491286,172.994399507201,-132.051336361039,35.4190082764092,199.365527777796,203.024780347972,183.06834340386,200.758109537075,2690.28202206702
452,274.713340096672,25.9417384271801,-248.771601669492,111.414931621156,137.356670048336,-134.081215914314,-19.3908301591355,136.323813382464,167.805750867411,145.255660389173,156.945401695116,3282.56571273727
453,-201.552532156949,-93.3336174865531,108.218914670396,-7.44264859192162,-100.776266078475,21.3082683672242,-65.6023779359479,33.5471947116,53.3575339545289,21.1443696641043,37.8653928447715,3260.2086993919
454,-341.759030622415,26.1586913455376,367.917721967953,-197.038206656745,-170.879515311208,141.529366153215,-84.8589896615231,-77.0733548366003,-95.2891160344634,-127.590755206411,-106.005688142024,3535.08734542933
455,-145.732021077823,-26.0941817618659,119.637839315957,-46.7718287770454,-72.8660105389113,53.0282527266184,-13.5813338627198,-49.0436524728099,-88.1369403196161,-117.540887717516,-100.952577372233,4262.71277590499
456,-351.566726670642,79.7974598307437,431.364186501386,-255.580823166065,-175.783363335321,172.70328510735,-85.9576162866868,-182.342991207671,-270.81849062102,-341.449595530728,-311.155880962415,8220.17654659165
457,-159.138282302849,56.7827448452167,215.921027148066,-136.351885996641,-79.5691411514247,41.4326523418918,-133.055722464283,-250.390757640951,-322.817400440197,-406.89438079823,-341.109830636145,14471.4388634619
458,-340.393293816237,137.104798953417,477.498092769653,-307.301445861535,-170.196646908118,177.567424598762,-122.363243572129,-439.431041822141,-658.558754451437,-848.881717257214,-801.37338067925,24139.6973846368
459,-1094.86075089214,398.996632899046,1493.85738379118,-946.427008345114,-547.430375446068,701.940085912672,-89.9772119658381,-1290.12980568658,-1960.95124988933,-2588.95271434919,-2446.32469347691,41290.9597775857
460,910.981289227019,-558.135716250321,-1469.11700547734,1013.62636086383,455.49064461351,-893.017581843599,-316.918158209858,1057.03268583265,1694.2644349094,2112.76818745615,2076.56775199681,75620.4419735735
461,-75.9651313407403,-182.286280641375,-106.321149300635,144.303714971005,-37.9825656703702,2.60449209352481,111.530133487685,-330.651955146598,-87.3937040040792,-36.2022797331355,77.9031857808876,136397.182430416
462,-228.31250625242,-140.411327564092,87.9011786883284,26.2550744378818,-114.15625312621,72.4286535458534,56.9561284033783,-387.633467603073,-285.74432105846,-387.965126089451,-292.508064813531,92380.2311818468
463,-279.267689903756,-2.83517397519017,276.432515928566,-136.798670976688,-139.633844951878,200.70524784275,124.977979756934,-443.615758450968,-421.503161160126,-524.785023243862,-480.951187581168,68367.2252594626
464,-493.50603196678,11.8569413599994,505.362973326779,-258.609957343389,-246.75301598339,313.963816319228,122.564659311677,-508.462633777849,-513.959565763032,-675.281191572088,-596.704932613971,61725.9407368612
465,484.009015921561,53.8565286821931,-430.152487239368,188.147979278587,242.004507960781,-369.714568026089,-309.276648812809,418.106796826765,569.12872221327,569.102421174691,588.319699536115,75865.5479696002
466,470.974852158221,-32.3040858311633,-503.278937989384,267.791511910274,235.48742607911,-542.681707680267,-582.08447737115,688.457218875915,834.421830241392,906.114786789759,861.913457214349,80428.5958481593
467,224.492078887173,90.8368735260224,-133.65520536115,21.409165917564,112.246039443586,-298.683594077908,-463.711982794667,259.341809189712,349.902104251997,268.736447948431,254.976772407166,57047.3973021148
468,510.989644009815,108.619589306142,-402.370054703674,146.875232698766,255.494822004908,-362.366478629526,-322.362902555379,301.116212186645,425.685787345007,155.009791324529,179.175315152045,54155.6881853501
469,91.819339952684,275.043914517025,183.224574564341,-229.134244540683,45.909669976342,-341.26393342284,-865.752441410022,107.457007956583,367.219269667504,-275.559031544853,-168.991862610883,65928.4096045725
470,285.069830925024,128.292363874248,-156.777467050776,14.2425515882642,142.534915462512,-255.280541227536,-353.783615404297,120.393433521637,232.081109873332,-97.2818640010596,-51.15893754391,98413.5247249545
471,63.1226492071073,-74.2986470305677,-137.421296237675,105.859971634121,31.5613246035537,-134.201317522671,-130.981338807667,116.313625721369,86.30663833421,-180.381017428663,-162.290005822546,112699.694472077
472,532.155666656456,50.2481943051221,-481.907472351334,215.829639023106,266.077833328228,-239.488987825054,2.92949670122653,116.418521421898,4.81648218792748,-280.886100600972,-240.300736383517,163831.83315624
473,604.541068115125,93.669326108422,-510.871742006703,208.601207949141,302.270534057563,-186.060759986201,138.750222034301,105.34680220938,-134.127866263019,-431.704076042177,-394.159756390114,167238.757761513
474,68.8358264870722,246.249140718295,177.413314231223,-211.831227474759,34.4179132435361,127.945262823254,78.4772114152848,-238.223033447945,-718.289275557341,-1212.93771490244,-1107.95861295653,72063.4956863048
475,-1052.30001421295,707.606537716235,1759.90655192919,-1233.75654482271,-526.150007106476,987.854979047299,215.803406165411,-903.139301296945,-2461.23248309043,-3842.3978673211,-3571.0905075503,16379.4358559921
476,757.079088165998,-700.583026943259,-1457.66211510926,1079.12257102626,378.539544082999,-840.013419507088,-222.364723904918,405.747130486142,1935.90072953382,3151.48267490153,2956.77870604651,9345.73138215819
477,-36.3567947371726,-174.822296986889,-138.465502249717,156.643899618303,-18.1783973685863,-60.2577052737872,17.9500917021423,-246.320849353679,251.022324878269,536.666804467955,498.691342541731,3689.64340528751
478,-329.39160528101,-112.672115205073,216.719490075937,-52.0236874354321,-164.695802640505,148.778541580333,80.8375930847294,-366.66110313244,-144.569013465211,-38.777427645712,-55.9569165709568,-164.404877610483
479,-885.286566780992,-138.889595103379,746.396971677613,-303.753688287117,-442.643283390496,445.332280520161,144.267589362709,-630.93106684785,-496.794846607901,-557.684742903562,-541.621830493075,197.773380966668
480,-154.786615072831,-37.215598839121,117.57101623371,-40.1777086972945,-77.3933075364155,20.4286612805069,-76.7136936726961,-41.502988762414,90.3949634915975,112.16536067188,95.8022783151719,-1039.98667356336
481,539.549838571019,-104.337451392746,-643.887289963765,374.112370678255,269.77491928551,-571.91074764491,-499.934205326055,829.699126227042,1069.60765006983,1283.20703088897,1217.5258472825,102.422313505576
482,239.572307050155,14.6311135168298,-224.941193533326,105.155040008248,119.786153525078,-268.753739848415,-312.566286163504,380.096138300159,428.586313006645,521.111624571636,462.948717274729,-573.421808297921
483,152.63075482822,47.8846621516227,-104.746092676597,28.4307152624872,76.3153774141099,-124.1158059901,-143.485519303603,196.626197239801,189.813993433787,246.555674205474,168.202272956066,-723.127113533585
484,0.498377614769652,-6.78196723302153,-7.28034484779118,7.03115604040636,0.249188807384826,-64.2163697707641,-121.152394693737,71.5220489677839,117.33293323422,105.527402557129,55.3234263335864,-631.93343471031
485,-19.3035458751419,-95.6693411848096,-76.3657953096676,86.0175682472386,-9.65177293757097,-67.7850978162255,-59.2044003227834,152.154776279982,171.057884354592,150.725938131272,106.441898841599,-1272.08756715988
486,-181.286330839661,-257.747534173245,-76.4612033335834,167.104368753414,-90.6431654198307,-58.7456117980071,-41.0300202624308,110.272066337211,147.000537895456,134.73496183148,88.159322539075,-1694.9075944425
487,-210.396339575238,-230.454118196526,-20.0577786212875,125.255948408907,-105.198169787619,-36.1826323224856,-52.3074860236837,12.1518076547375,26.126856119856,7.84168483046159,-6.75725822916373,-2262.90226684975
488,22.8351068082211,-447.16372679629,-469.998833604511,458.581280200401,11.4175534041105,-202.023694789621,65.951444025269,88.0730819934001,111.785422154722,101.294489952076,48.5211130439946,-4146.44437460543
489,76.8451874688762,-750.650220224644,-827.495407693521,789.072813959082,38.4225937344381,-363.951509817619,99.5923880582827,118.425461812105,107.877850345382,84.1941442422188,31.5820277840632,-3982.25998410767
490,500.327589694181,-1726.80161932292,-2227.1292090171,1976.96541417001,250.163794847091,-864.932693282912,497.263822451275,556.955167023012,518.178991456391,443.807186420017,252.008096278538,-2246.01043235205
491,473.396329354651,-694.67430499576,-1168.07063435041,931.372469673086,236.698164677326,-518.213253688117,131.644126974178,358.452086957075,323.40738777224,269.484201368493,224.922676526928,-2034.92050046745
492,25.33072379143,-313.494676054336,-338.825399845766,326.160037950051,12.665361895715,-153.127204590048,32.570990665671,134.279845963523,26.6936461266935,-27.3580279396394,-37.1520487958465,-1347.80953211091
493,127.800203100252,52.9066316437675,-74.893571456485,10.9934699063588,63.9001015501262,-21.4626009450922,31.9683695663006,43.8130315366349,-137.425942945888,-247.462352564581,-197.703327277757,-950.150555358272
494,-120.742839217827,550.761405662363,671.504244880191,-611.132825271277,-60.3714196089136,203.035750100112,-265.432744679966,-443.028791954668,-828.074194703222,-1027.84853652867,-860.503168690471,-976.024914497542
495,429.176694345114,679.812457361228,250.635763016114,-465.224110188671,214.588347172557,272.144171942066,293.652580868018,1426.23669266608,645.745158290697,203.673432040095,371.028107349771,-550.996548893312
496,-376.247158577765,-1156.88085253312,-780.633693955353,968.757273244235,-188.123579288882,-352.764134135052,75.1054256852483,-933.887368685934,-115.849083226345,442.665589763361,167.45744224381,502.711241849451
497,-386.07993047768,-415.144996146326,-29.0650656686462,222.105030907486,-193.03996523884,95.4998795720641,220.064824812774,-551.272305167821,-263.414763759966,-126.896074553893,-191.409822731843,428.421799442727
498,-566.428981921145,-294.90229210235,271.526689818796,11.6878011417771,-283.214490960573,205.325526229828,139.12436264086,-519.091340570808,-362.210340371632,-322.428051501895,-334.115814460452,606.455830215778
499,-339.476309300093,-69.4678922512639,270.008417048829,-100.270262398783,-169.738154650047,221.312374094259,172.616331139688,-507.755183821409,-469.284606197588,-476.825249304552,-489.047396057609,1850.00389173611
500,-462.331909710955,-24.8355241450072,437.496385565948,-206.33043071047,-231.165954855477,290.646685632394,143.796985698841,-576.383050347919,-579.168704253574,-637.164714671852,-625.923404684395,4726.14878381874
501,73.2852976886438,81.9960383594339,8.71074067079007,-45.353389515112,36.6426488443219,16.2356767537594,23.7606128367288,62.1903690331064,98.2840031022488,62.5620094008728,52.9511067189824,3759.82214075531
502,548.752214006106,-147.069930498321,-695.822144504427,421.446037501374,274.376107003053,-468.217577986958,-240.613011469488,792.94867698907,881.823774763224,1016.10707183926,952.391445424361,1626.01841770106
503,404.540324464607,35.3906556570528,-369.149668807554,166.879506575251,202.270162232304,-328.574579172903,-287.999489538252,366.215900618596,360.105740214848,463.445110951019,402.246753354694,-6133.00798501882
504,206.943601794706,55.5506482455421,-151.392953549164,47.9211526518111,103.471800897353,-131.08556495858,-110.778176367995,210.111316470685,231.726379164617,298.544255270725,249.664001683671,-2254.87124937093
505,-67.78060430398,-118.047445509574,-50.2668412055941,84.1571433575841,-33.89030215199,-41.3196804128206,-32.3725196200471,102.673065779134,104.967916555668,140.520805260362,91.1220185259788,-535.171059249184
506,-100.114342511928,-165.296097905114,-65.181755393186,115.23892664915,-50.0571712559642,-7.59908391846488,49.9835875562562,198.923768869967,178.311228415877,186.821978136879,147.221292644903,14.352182782055
507,-42.3647555179782,-116.392327818686,-74.0275723007076,95.2099500596967,-21.1823777589891,-44.0328769194724,-14.0381815382373,93.9257471116478,128.298926381806,140.750358654136,113.983405498927,-2162.94312397301
508,60.9061245196126,-27.1161858918113,-88.0223104114239,57.5692481516176,30.4530622598063,-68.0618428928564,-48.101375374289,-22.6721060802161,-31.0400013838589,-3.33937309750871,-17.6776617365155,-3696.43870624617
509,113.787186103445,-86.0046942563317,-199.791880359777,142.898287308054,56.8935930517227,-47.3625085575303,105.066863244717,128.820184579803,110.790849963064,132.147230575053,110.824055958611,-1493.14582837108
510,-19.2436460656913,-35.3736683102552,-16.1300222445639,25.7518452774095,-9.62182303284567,28.0840629894941,72.298148223552,32.8327473327065,27.3854117000626,62.7036440033758,55.1531627616007,-1174.90820875854
511,-261.772382677386,-88.9285597592407,172.843822918146,-41.9576315794525,-130.886191338693,86.1223459004137,-0.599131117318279,-104.876433640405,-184.663664119832,-179.086212437433,-170.772472107695,5.22741697564197
512,54.779603174055,35.450826997168,-19.328776176887,-8.06102541014047,27.3898015870275,89.2839954130302,197.896767002947,16.0579067017983,-131.763463286835,-119.084851474999,-168.432756239054,234.384414773333
513,-70.0824736387258,-111.785950518753,-41.7034768800268,76.7447136993896,-35.0412368193629,40.1008149134001,121.905106706827,-0.878992868081355,-133.98727510651,-92.7536319707613,-111.868901870828,1661.74934945168
514,-73.273723851903,100.6204774745,173.894201326403,-137.257339400451,-36.6368619259515,239.556499676321,305.218798026238,-108.864313808243,-416.836796355235,-297.267399009613,-378.211736009741,3082.51671005151
515,-214.313427188972,61.1874741385636,275.500901327536,-168.34418773305,-107.156713594486,576.811858140018,878.122814952501,-182.024503914608,-755.454857999467,-417.12701850625,-563.173597976367,6446.42829710158
516,-1136.35083084649,548.300681242333,1684.65151208882,-1116.47609666558,-568.175415423244,1133.27251127722,581.89351046562,-852.402538042401,-2056.66396544228,-2749.13501302464,-2797.12739956587,1880.27084482696
517,1570.79605556376,-383.277229341918,-1954.07328490567,1168.6752571238,785.398027781879,-931.139223883765,91.7948371381454,1630.52282323313,2374.92096518649,3175.26079658716,3017.6486363711,1612.16095229415
518,-412.635210357227,-265.670737742551,146.964472614675,59.3531325639381,-206.317605178613,68.7337285366469,-9.49701554138142,-893.37258971161,-403.519423702473,165.236858602521,348.963681854482,-5859.89453332333
519,-116.516388468368,-76.1872907656148,40.3290977027532,17.9290965314308,-58.258194234184,77.0904234467054,113.851749190658,-470.079304918743,-248.303294308177,-23.5516204860962,58.6000724413269,-1395.27177081296
520,-382.425853425849,-3.80468551761032,378.621167908239,-187.408241195314,-191.212926712925,235.1106127345,91.6000575607608,-524.741177428828,-429.059290972074,-336.371732834806,-281.980545048114,820.637719504983
521,-451.958990795696,21.9078328411765,473.866823636872,-247.887328239024,-225.979495397848,339.062825869955,204.258828103037,-589.650847724371,-543.094700542072,-510.357216514092,-434.308804551089,1516.64103108874
522,-515.302948171637,-43.9074489205391,471.395499251098,-213.744025165279,-257.651474085818,325.178302523947,178.961105796795,-493.657617852786,-503.954502662274,-553.5355245234,-520.912986962346,-6604.06086082543
523,-30.7174439873411,44.1143548409682,74.8317988283093,-59.4730768346387,-15.3587219936705,-1.46774943158414,-77.7672976914776,152.013388242445,142.394682556868,135.948327198116,126.086555579799,-5520.8505425188
524,798.357588025397,-118.737692071362,-917.09528009676,517.916486084061,399.178794012699,-620.658459666105,-324.22163923545,1002.43650545049,1052.06918861145,1285.62168982164,1204.38168136092,-3827.47003362906
525,375.43540431673,44.5979048544241,-330.837499462305,143.119797303941,187.717702158365,-288.506566241076,-246.175633019848,338.477558458829,352.589581113977,470.136799281701,419.911765750218,-339.127403326002
526,69.9208790294429,24.8177888556475,-45.1030901737954,10.142650659074,34.9604395147214,-96.9163603704053,-148.729630567015,126.599613317511,145.888314619007,223.187624055248,201.764667139111,-251.916849431065
527,109.589394629318,49.1745508219974,-60.4148438073203,5.62014649266143,54.7946973146588,-58.2823840994108,-56.1499243915014,124.799846122552,110.392169953998,149.09712768783,113.574375913737,-2544.21506393687
528,50.1564264709041,41.7035422936883,-8.45288417721576,-16.6253290582363,25.078213235452,-16.9614273464709,-25.4699705157261,115.197841493044,126.03280628618,147.312894275057,105.346997256277,-1574.13404044284
529,-108.929417731793,-48.5708147895471,60.3586029422459,-5.8938940763494,-54.4647088658965,3.0955803326078,-54.1674422770303,65.1321912348271,54.7668134423586,86.9593015264859,78.1074460111433,-864.223721847775
530,-123.174386589199,-10.9542937659185,112.220092823281,-50.6328995286813,-61.5871932945997,50.0319083647267,-12.1562760938276,64.2708589329717,35.7911296345992,61.1461185393376,42.816670069053,-327.123905412329
531,-52.8302927892496,61.0670186928219,113.897311482071,-87.4821650874467,-26.4151463946248,39.1750708110356,-35.5471698600003,-4.41189321886066,-8.95773382643574,7.4322170270479,0.517327784470261,-3817.5420678622
532,-113.511248038177,80.4673258328817,193.978573871059,-137.22294985197,-56.7556240190886,59.2217028828601,-75.5351681053386,-45.7069003437854,-67.0750063775863,-74.3400482410423,-81.4416279118587,-2027.30097958662
533,10.6878678312119,-2.23911250899937,-12.9269803402112,7.5830464246053,5.34393391560593,1.57174618598495,16.0704727121811,27.8392277668306,7.41755617727449,31.3506224466902,36.6000129449956,1219.15735701764
534,-60.2735434036031,-13.4753447419594,46.7981986616437,-16.6614269598422,-30.1367717018015,40.1874340442379,33.576669426832,2.37842166432733,14.6220726340243,18.6702406566923,46.0137044054194,-5577.73306750732
535,-126.664722928199,18.421416817373,145.086139745572,-81.7537782814727,-63.3323614640997,59.2125040121757,-26.661131721221,-102.540964097788,-103.366381288321,-87.984083322863,-95.6371898801067,-3709.33078212605
536,-156.992821566771,92.1801484232283,249.172969989999,-170.676559206614,-78.4964107833855,146.124407776977,43.075845563954,-38.7130304877147,-131.802565966726,-171.327473255042,-145.141922273845,-2990.20026669216
537,63.129880853066,-22.9646596727821,-86.0945405258481,54.5296000993151,31.564940426533,-68.1626755886734,-50.2308106514988,82.495749094746,12.2862235285468,-34.7839033408227,24.5380537209471,-1996.93066083749
538,-68.5008874502878,157.579594763423,226.080482213711,-191.830038488567,-34.2504437251439,62.7222664651813,-100.635949283348,-4.18996925074578,-162.29232074268,-269.153296815551,-225.082529127101,-1809.14489220348
539,271.53087690353,376.937486870337,105.406609966807,-241.172048418572,135.765438451765,37.6859784352778,-30.034653096251,10.2503795819706,-261.037133153517,-431.36344419875,-381.219200510786,-1656.50395689088
540,-298.271354484081,526.612606116242,824.883960600323,-675.748283358283,-149.13567724204,255.528661618919,-313.826637362485,-379.30647321636,-798.939928045283,-1130.65405761682,-922.950783973873,-1487.93578208382
541,-409.774369880371,1123.72420559103,1533.4985754714,-1328.61139053121,-204.887184940185,757.287862103736,-18.9228512639245,698.586290293751,-822.892703753884,-2110.59533277873,-1918.47356094849,-2292.67947417868
542,488.46983733887,-76.6545113403904,-565.12434867926,320.889430009825,244.234918669435,-204.866340692215,155.391667294831,584.226966773085,1744.96672620176,2578.53961354699,2102.55666471362,935.417480417404
543,-833.448306005828,307.129808670157,1140.57811467599,-723.853961673071,-416.724153002914,442.088605798007,-256.400903079972,-1555.26742089812,-939.137422025988,-318.350681051694,-125.898703093131,-690.126645272965
544,-1070.38446788553,1554.70510214526,2625.08957003079,-2089.89733608802,-535.192233942766,1080.19049187262,-464.708586285538,-1204.64210619912,-917.577871807592,-743.380527492709,-483.717053070882,-1249.25183602142
545,-653.223837865898,624.417241257328,1277.64107912323,-951.029160190277,-326.611918932949,607.491038948519,-62.6590012261879,-811.367041584277,-679.978711777551,-600.877262783844,-474.076076210062,-828.443551377572
546,-662.119021025226,329.376469637668,991.495490662895,-660.435980150281,-331.059510512613,518.752060715628,46.0086307683611,-753.99228414569,-695.128126975904,-713.75890873602,-630.55885100348,-613.359808195044
547,-726.669963247806,188.332658007374,915.00262125518,-551.667639631277,-363.334981623903,512.431634176346,109.860647097513,-704.298379327043,-712.906184406187,-780.463404375806,-711.590279715888,-543.327778998399
548,-47.9026598562364,258.608246536665,306.510906392901,-282.559576464783,-23.9513299281182,150.193298045303,-6.12431030229499,-36.2617418015881,-58.1353041491843,-155.526349586694,-73.5811633796942,300.092071326093
549,779.399866907931,167.694069567665,-611.705797340266,222.0058638863,389.699933453966,-519.716482069508,-427.72716679875,716.932420190905,877.868978728241,1003.78168427547,974.078467569623,470.294371448632
550,521.50417809532,-8.46419139639056,-529.96836949171,269.21628044405,260.75208904766,-419.960770974666,-309.953172457622,637.081598144122,682.960606086695,832.680591991949,739.978577266585,-245.955175321251
551,296.522152058277,57.5459251839948,-238.976226874282,90.7151508451439,148.261076029139,-234.244092799166,-229.511958724049,245.164295540503,289.191358358635,353.876904508296,296.328021150881,-986.857390431793
552,50.6662361563695,70.6175749051422,19.9513387487727,-45.2844568269575,25.3331180781847,-65.838006727204,-151.627352203181,107.217616207017,129.717980382686,136.513528383242,77.5916854744662,-2190.33388555251
553,1.01575158179048,23.6324029865004,22.61665140471,-23.1245271956052,0.507875790895241,-36.571137234969,-95.7589258746479,66.8457605529994,99.699247472638,78.9307554007677,24.1733094117444,-1887.30106018853
554,-84.7013812375708,-89.2056724859649,-4.50429124839411,46.8549818671795,-42.3506906187854,-21.4109388644404,-38.3175864804867,109.130107306578,153.723463339854,152.073272481283,117.337276326477,-1902.21373948079
555,120.252159824709,54.8637833090229,-65.3883765156866,5.26229660333183,60.1260799123547,-51.8048723868494,-38.2213682580122,58.427439950869,108.591023835852,82.0664913126319,83.0403862657389,-2016.5355409386
556,-18.1220905500509,-20.7726595298268,-2.65056897977593,11.7116142548014,-9.06104527502544,-15.6548460252,-28.659123070624,42.6393747380693,54.714284933068,55.9201570894262,38.5514134021662,-2677.00746985435
557,-22.4041041766145,88.8458938959293,111.249998072544,-100.047945984237,-11.2020520883073,4.21488416009737,-102.820229752349,-18.5174893128328,-13.9513872933451,-14.7445948517415,3.51239965474312,-4176.84321458719
558,-90.6264220997614,-7.64835561241671,82.9780664873447,-37.664855437464,-45.3132110498807,18.2608770811223,-46.4563123251001,-5.84097430936379,22.3377408392253,-12.8940364515163,-9.17231363380488,-7854.40870309178
559,-28.2401739807983,43.2345411090041,71.4747150898024,-57.3546280994033,-14.1200869903992,25.3652435551922,-20.7442279794181,17.9450800133621,35.3573780174738,17.9729918642034,-9.90894017068385,-3700.67237742325
560,-198.617367743277,-27.6831568216571,170.93421092162,-71.6255270499814,-99.3086838716386,39.9524548820212,-91.0293011575775,-80.8315553190467,-68.4905916598434,-82.7685728981539,-85.5488501151455,-2401.77948797195
561,-281.388390450989,-9.52662549425986,271.86176495673,-131.167569731235,-140.694195225495,100.592798247235,-70.6761684622592,-81.834883146759,-79.0619602216061,-86.3343766828532,-75.6714064766051,-1743.03620180603
562,-63.6688177126935,130.735180583683,194.403998296377,-162.56958944003,-31.8344088563467,125.710047920317,57.0160975442579,-43.0262960374812,-105.799972942712,-159.460709035987,-168.554573806064,-1263.5979672546
563,178.338208687502,83.7578423839718,-94.5803663035299,5.41126195977904,89.1691043437509,-101.7993694637,-109.018372623871,38.2554083911851,14.0536161610016,-10.7852114527531,-24.8121645160239,-859.183308248561
