sep=, 
EKG Messung vom 28.01.2019 16.52.42
gemessen mit dem EKG Dongle der Hochschule Luzern BAT HS18

 
 , Lead1, Lead2, Lead3, aVR, aVL, aVF, V1, V2, V3, V4, V5, V6
0,-56.6883589307254,167430.302340365,167486.990699296,-167458.646519831,-28.3441794653627,153071.918376955,138656.846054615,138711.715535719,138938.923690898,138865.345752149,138592.579038073,138525.583704791
1,-155.711412827892,461111.818322378,461267.529735206,-461189.674028792,-77.8557064139459,421570.288572085,381873.047408964,382024.485745722,382649.926224227,382446.942123628,381695.619481628,381511.413833959
2,-318.56615052186,943731.671805666,944050.237956188,-943890.954880927,-159.28307526093,862806.955892814,781563.67382944,781873.712232423,783153.479343355,782737.82214392,781199.95629462,780823.212872979
3,-587.643478584243,1741643.00478242,1742230.648261,-1741936.82652171,-293.821739292121,1592301.82494862,1442373.00163625,1442945.62433956,1445306.84124994,1444540.03481482,1441701.74728758,1441006.89697129
4,-1085.49537999649,3217456.80394648,3218542.29932647,-3217999.55163647,-542.747689998243,2941574.02463926,2664605.74995205,2665663.35429569,2670025.71771378,2668609.54954,2663365.8476575,2662082.44131028
5,-2658.49950212892,7873354.9169316,7876013.41643373,-7874684.16668267,-1329.24975106446,7198230.84586425,6520448.27529476,6523034.63727821,6533711.74680802,6530247.8543413,6517417.38166706,6514274.19296998
6,-1071.35795565462,3217498.22266581,3218569.58062147,-3218033.90164364,-535.678977827309,2941741.32335993,2664913.06609839,2665982.41923511,2670332.02978422,2668906.60690117,2663656.87466517,2662386.08525165
7,-586.283600258874,1741829.22091824,1742415.5045185,-1742122.36271837,-293.141800129437,1592630.45361036,1442845.40270221,1443420.35649421,1445772.93270887,1445009.71728424,1442164.06720729,1441477.42227616
8,-309.721876385622,943661.267338349,943970.989214734,-943816.128276542,-154.860938192811,862953.915860685,781936.842506635,782258.998693028,783528.097213107,783129.391964063,781586.4507513,781219.879626724
9,-152.384482377209,461133.434157946,461285.818640323,-461209.626399135,-76.1922411886044,421842.896855944,382399.975071566,382541.644084777,383182.837484436,382982.973922738,382224.005399124,382040.617385458
10,-57.1164839605626,167525.147795923,167582.264279884,-167553.706037904,-28.5582419802813,153350.684496719,139119.104713555,139186.828503325,139401.543282554,139325.821924409,139062.429273495,138984.074990092
11,-3.90966592164477,-114.878007144638,-110.968341222993,112.923174183816,-1.95483296082239,139.579152296501,390.126645815995,384.303922707855,398.560558010009,387.765045418608,394.512821382203,390.730414514604
12,-0.444542834389722,-77.8254950840201,-77.3809522496304,77.6032236668252,-0.222271417194861,134.567275443173,346.515503135975,349.674921470578,350.767268986354,343.206123798125,357.87945523893,348.050359988905
13,-6.00782948592678,-53.8984516777564,-47.8906221918296,50.894536934793,-3.00391474296339,218.103456615863,484.097535423556,490.948349007638,500.007359625277,491.925009265717,485.558722061513,497.582655074861
14,-4.7652316132735,-0.585793862992432,4.17943775028107,-1.79682194364432,-2.38261580663675,290.53791641524,576.896395080199,582.253094349464,569.97817099074,578.517176904628,574.710945760162,578.955613156606
15,6.3792823603726,-2.32822927518282,-8.70751163555542,5.51787045536912,3.1896411801863,287.188565687713,583.084643010981,579.745505451108,568.780042617465,576.732601463213,591.074825122487,583.564269420021
16,-0.177670120960101,-41.6066556992882,-41.4289855783281,41.5178206388082,-0.0888350604800507,241.056268029526,523.54152163738,537.785784328036,531.45975154746,530.148570223682,536.693643019156,528.044821062882
17,-12.1871039771067,-66.1666520499857,-53.979548072879,60.0731000614323,-6.09355198855337,217.922701577714,489.824951228307,469.151163461996,475.742129081802,464.783152284304,460.091184663266,473.227462474228
18,5.1970200187061,-180.34965044781,-185.546670466516,182.948160457163,2.59851000935305,93.0753150180244,371.697300502565,371.966637190344,371.750159082934,381.18705740603,372.517283334106,370.565386799863
19,7.8660886468424,-204.64794234428,-212.514030991122,208.580986667701,3.9330443234212,65.8844655914581,344.282962174038,342.58368131335,343.525554945954,342.221309126151,347.444231416303,349.63820128006
20,10.4919075095095,-501.096219322964,-511.588126832474,506.342173077719,5.24595375475474,-164.610366084191,182.367394664092,169.579835985438,167.722568647179,170.84050456775,174.451849638514,167.27367321754
21,1.01056434487691,-239.775851787999,-240.786416132876,240.281133960438,0.505282172438456,-132.572119794902,-24.3578234569286,-18.0231372027192,-20.9565565780213,-24.8104570984142,-23.4210561565706,-26.8907715814712
22,-7.03538877729443,-192.64762774983,-185.612238972535,189.129933361182,-3.51769438864721,-384.906377704538,-584.20051643654,-602.746290083218,-584.654591873055,-600.453609131975,-600.06794548576,-610.122069265839
23,-8.98705173414783,-74.527493027359,-65.5404412932112,70.0339671602851,-4.49352586707391,-780.875494074629,-1496.21054685605,-1492.66652316268,-1491.31475305636,-1474.50469752078,-1500.78480290968,-1479.77848564516
24,-2.8090459718951,-76.4848287344212,-73.6757827625261,75.0803057484736,-1.40452298594755,-1668.40511348961,-3263.1344442167,-3252.35993765478,-3265.66390824734,-3254.36007715153,-3265.98360134888,-3270.23257620048
25,8.83668832737021,61.2732519691635,52.4365636417933,-56.8549078054784,4.41834416368511,-3136.62797908629,-6325.69252181437,-6334.85604352699,-6317.44858660945,-6323.86570824825,-6336.3708801686,-6322.90525271406
26,-1.79689182207221,66.9757150663063,68.7726068883785,-67.8741609773424,-0.898445911036106,-7952.44492913468,-15973.6624651577,-15977.0213881508,-15963.3524289395,-15957.8827247896,-15969.2352437038,-15975.6964237831
27,-2.93363114999374,161.822629020811,164.756260170805,-163.289444595808,-1.46681557499687,-3531.66962433522,-7228.09550884124,-7205.98928990908,-7205.07901074475,-7199.22484520185,-7210.85771094734,-7208.18509902761
28,6.80374417456915,168.847646198585,162.043902024016,-165.4457741113,3.40187208728457,-2151.23485341709,-4464.51360885819,-4477.2386613854,-4468.82958290112,-4473.71005799074,-4459.76851896063,-4482.10270895716
29,5.1326663470827,38.8983943313942,33.7657279843115,-36.3320611578529,2.56633317354135,-1479.93484805438,-2993.63542409308,-3004.43237562236,-2989.52099534537,-2996.80317857914,-2987.00142547631,-3005.52373331581
30,1.61848842562176,179.475005129061,177.856516703439,-178.66576091625,0.809244212810881,-926.332530351443,-2030.52157740633,-2040.7565660683,-2030.05782398843,-2021.50094633418,-2042.5189295561,-2023.61572327421
31,4.39276103171869,69.2008567001321,64.8080956684134,-67.0044761842728,2.19638051585935,-718.503743514375,-1501.81558269716,-1513.30862554433,-1505.90079601071,-1511.00908500186,-1510.74692876401,-1506.9029186324
32,-0.985679812467424,-229.883862887014,-228.898183074547,229.391022980781,-0.492839906233712,-814.788486953476,-1400.6787908324,-1405.68714815847,-1393.27691320115,-1402.31944850757,-1400.35563941716,-1397.19570534266
33,4.15477847840521,-41.1578717809753,-45.3126502593805,43.2352610201779,2.0773892392026,-698.602527861745,-1351.89240546411,-1365.52246451212,-1356.80793978818,-1363.11903959184,-1357.02455900208,-1346.01746627883
34,0.315817820926895,82.9697407923231,82.6539229713962,-82.8118318818597,0.157908910463448,-595.428354945689,-1273.51063286277,-1256.17408793559,-1262.12822985594,-1261.28885135136,-1265.66563423074,-1274.06717302464
35,-11.4402511981607,132.064607210777,143.504858408938,-137.784732809858,-5.72012559908035,-616.531881324016,-1376.56862105697,-1355.69237414596,-1363.02569164662,-1359.87302192082,-1350.20945254996,-1357.7873726793
36,11.8083273917437,95.7150624202623,83.9067350285186,-89.8108987243904,5.90416369587183,-628.481790846505,-1340.87031672153,-1325.66855262697,-1345.21856290489,-1343.56763490313,-1352.19180750052,-1346.45910308641
37,-12.5793037102849,-32.9991567793186,-20.4198530690337,26.7095049241761,-6.28965185514244,-769.552065385506,-1518.68427770198,-1525.44280930536,-1524.69467536171,-1528.31163504563,-1533.412017013,-1539.18906261129
38,5.37499294368899,67.2717009669286,61.8967080232396,-64.5842044950841,2.6874964718445,-651.619894509407,-1365.13649704205,-1372.54307037441,-1363.80107407726,-1365.43704124016,-1379.47273198987,-1358.8229649922
39,-9.96353136090329,-89.4953420574311,-79.5318106965278,84.5135763769795,-4.98176568045164,-769.201974716343,-1458.87213873616,-1451.46827638781,-1462.67332758062,-1455.74429692299,-1461.82962011432,-1468.55818660551
40,0.915086813212838,-184.993698092789,-185.908784906002,185.451241499395,0.457543406606419,-864.465458054736,-1543.02213120347,-1541.00741948982,-1523.39148084656,-1521.34196450678,-1538.37476924696,-1538.00206819177
41,7.79387544747442,-22.3805138800526,-30.174389327527,26.2774516037898,3.89693772373721,-777.99340028422,-1525.81241124091,-1533.09548409426,-1536.426094353,-1534.07394189737,-1524.38240128069,-1519.61970845729
42,-0.118777356226929,71.7217255387513,71.8405028949783,-71.7811142168648,-0.0593886781134643,-622.136243394314,-1316.11298968361,-1320.21492266387,-1319.6204180301,-1301.75518020694,-1313.04780330192,-1314.6546440497
43,-2.45345651888056,68.1671186954482,70.6205752143287,-69.3938469548884,-1.22672825944028,-642.269806784418,-1355.16018878316,-1367.30496484152,-1348.9007781267,-1364.31377153282,-1350.41608292636,-1356.95445476566
44,-0.532154331245692,57.135010142898,57.6671644741436,-57.4010873085208,-0.266077165622846,-692.482791789822,-1442.63274805379,-1450.97124808849,-1445.52742521011,-1434.55622919041,-1442.40463228573,-1448.01723740756
45,2.17996964894701,-8.34728722571163,-10.5272568746586,9.43727205018513,1.0899848244735,-720.434778186507,-1430.34229949836,-1428.97682628327,-1437.23132604369,-1440.94437946446,-1434.90737918048,-1437.59252229807
46,1.29144001202076,-99.8638859252387,-101.155325937259,100.509605931249,0.645720006010379,-814.413814691463,-1527.67230344567,-1538.51656201915,-1537.4623763386,-1547.21702187456,-1540.77624516634,-1539.28083397992
47,6.47585378587246,-14.3127736672177,-20.7886274530902,17.5507005601539,3.23792689293623,-783.900074374294,-1547.0115212955,-1540.1257554823,-1533.94918851831,-1545.59460138532,-1559.92297005487,-1535.17777500974
48,4.62898805577424,-96.0844206801848,-100.713408735959,98.398914708072,2.31449402788712,-794.328932144417,-1487.94445555288,-1491.4861381246,-1491.427779188,-1482.44816171346,-1491.26456689855,-1503.42840629007
49,-4.3994675312133,-17.752840336354,-13.3533728051407,15.5531065707473,-2.19973376560665,-768.270399176225,-1523.18742554731,-1519.86000657285,-1528.57579092431,-1523.35783714967,-1530.03145301779,-1522.17333988877
50,-8.03816147401812,-2.979580975516,5.05858049850212,-1.03949976149306,-4.01908073700906,-798.649834023396,-1602.35824854529,-1602.99648659481,-1608.05960236472,-1585.01557834417,-1593.51316033423,-1600.10791473038
51,-4.33645634705317,9.8283677638392,14.1648241108924,-11.9965959373658,-2.16822817352659,-802.941379039505,-1620.0475821899,-1595.43720221356,-1607.82995637279,-1605.73582790871,-1610.33565953953,-1603.17984239777
52,1.72481637363671,108.290076022531,106.565259648894,-107.427667835713,0.862408186818357,-697.273083425476,-1501.11142649985,-1491.01560489342,-1490.57705361373,-1491.29660075143,-1494.96907462258,-1493.48679090245
53,13.607728987321,55.7208560219733,42.1131270346523,-48.9169915283128,6.80386449366051,-686.322884043853,-1414.75889512236,-1425.8419857088,-1418.27529628956,-1416.24247343946,-1412.54682569695,-1422.58812898496
54,2.39460221712943,-55.8846935674082,-58.2792957845377,57.081994675973,1.19730110856472,-779.782931226422,-1501.28656666831,-1505.21267256993,-1492.22116827458,-1511.50373545653,-1502.44050706466,-1497.25919348066
55,-10.7660605122801,77.4927930973063,88.2588536095864,-82.8758233534463,-5.38303025614005,-753.873815218234,-1596.00648404605,-1597.2716471937,-1592.14077617539,-1595.20219476544,-1581.37541731828,-1603.22786689637
56,2.03472476414754,5.02116249338724,2.9864377292397,-4.00380011131347,1.01736238207377,-823.014401024178,-1649.0152397776,-1645.97852867242,-1629.05593752034,-1635.08791147935,-1646.28991391079,-1643.95024421101
57,-6.89149324895698,2.37823425573879,9.26972750469577,-5.82398088021728,-3.44574662447849,-779.394069083719,-1568.05786567213,-1579.83997097559,-1570.46607798568,-1565.3755714258,-1582.24980300979,-1587.50978854025
58,-5.34292093347176,2.45450526857167,7.79742620204343,-5.12596573530755,-2.67146046673588,-791.531892390049,-1590.86121098214,-1595.0409063586,-1610.99968838849,-1593.94229721988,-1614.11634924434,-1594.85167488473
59,-2.49628828832647,-18.5439277543628,-16.0476394660363,17.2957836101996,-1.24814414416323,-878.836753764437,-1741.62586806284,-1730.6569234698,-1733.56658403683,-1722.23767251763,-1736.34569299591,-1733.97125863735
60,-3.66453936204198,63.0526743829541,66.7172137449961,-64.8849440639751,-1.83226968102099,-803.47521700908,-1673.66764776316,-1661.85294949979,-1677.81625768449,-1657.4630127151,-1670.17140670193,-1665.47394071333
61,1.92260593068204,91.1549494158826,89.2323434852005,-90.1936464505416,0.961302965341019,-739.341319112355,-1567.91498170991,-1576.00411411095,-1591.997456096,-1590.21121280102,-1588.8897869536,-1578.50749419036
62,-5.39193243562477,6.00975137387286,11.4016838094976,-8.70571759168524,-2.69596621781238,-834.143186086614,-1679.68805598273,-1689.99703990173,-1682.68861042094,-1691.38399608168,-1689.91363920338,-1691.60272081397
63,8.6513955455157,57.8400113485113,49.1886158029956,-53.5143135757535,4.32569777275785,-813.144698375545,-1675.47801255409,-1678.84817611874,-1679.86068563239,-1661.91219983803,-1682.78182556338,-1678.71614671775
64,-5.34977937216172,30.6209954892693,35.970774861431,-33.2958851753501,-2.67488968608086,-855.180849209719,-1746.33247328087,-1738.15285566109,-1715.49753847616,-1743.02450925851,-1738.10646426349,-1741.80752203282
65,0.0462047475157306,16.3869755943306,16.3407708468148,-16.3638732205727,0.0231023737578653,-899.403801205539,-1815.14837325789,-1811.64448506894,-1797.19259811079,-1810.72126897337,-1817.09669907443,-1792.96136502098
66,6.43382135877619,96.1159235667728,89.6821022079967,-92.8990128873847,3.21691067938809,-1645.36346231704,-3380.40902684207,-3383.54934659513,-3372.33654928624,-3365.85342120985,-3381.65854891215,-3379.4921052244
67,-1.48087806388503,404.418816167716,405.899694231601,-405.159255199658,-0.740439031942515,-2849.28472053842,-6104.46913530843,-6098.52230388977,-6097.84257885045,-6084.67816511341,-6107.31962725776,-6097.71078620575
68,8.27144299773499,290.500197089219,282.228754091484,-286.364475590352,4.1357214988675,-5324.66299968417,-10931.5547534598,-10953.028836436,-10933.4434006894,-10944.3145964119,-10947.974979486,-10960.2200183998
69,-2.70280663081212,249.439017174445,252.141823805257,-250.790420489851,-1.35140331540606,-9333.14800548644,-18918.4378347781,-18930.9057883675,-18931.5329364164,-18925.5503912761,-18927.1115341772,-18945.1041650221
70,6.0196827663458,610.189519405598,604.169836639252,-607.179678022425,3.0098413831729,-16399.4322679148,-33403.0343724689,-33407.5850521139,-33380.9974375591,-33351.1484248458,-33415.20545083,-33411.4631398873
71,-5.35522834293079,1051.58917347903,1056.94440182197,-1054.2667876505,-2.67761417146539,-39246.8466018065,-79550.637605435,-79568.7205538339,-79500.8845663548,-79429.9191810925,-79602.4942310563,-79594.0093875106
72,-1.4574692962633,342.050140521344,343.507609817607,-342.778875169475,-0.728734648131649,-16280.2797920507,-32904.0671939191,-32904.0674569602,-32893.1682076221,-32862.6666772586,-32912.5352411937,-32915.9973950686
73,1.57559370744275,123.127064079628,121.551470372186,-122.339267225907,0.787796853721375,-8959.33381550541,-18040.219101383,-18033.6985920217,-18017.0259550971,-18012.4642419321,-18050.7985319856,-18048.7131427452
74,-11.9449670190515,196.724830914667,208.669797933719,-202.697314424193,-5.97248350952577,-4812.90892390617,-9834.48764574606,-9841.64973078191,-9826.61345938634,-9799.18021390648,-9848.59882754515,-9838.3832299519
75,15.4208602381696,75.5054288266401,60.0845685884706,-67.7949987075554,7.71043011908478,-2478.77238054134,-5017.62932967115,-5012.55140947571,-4990.38451419724,-4999.57226204357,-5022.77719651235,-5017.04605975529
76,-4.0651408523554,214.078657944221,218.143798796576,-216.111228370399,-2.0325704261777,-857.960475735919,-1934.06475026842,-1945.93074892618,-1936.09414201163,-1927.75499630126,-1940.18879132642,-1937.44637857247
77,6.09145286399871,-62.9880425851734,-69.0794954491721,66.0337690171727,3.04572643199936,-218.332664576417,-367.585833703663,-377.360875623097,-374.866546887119,-378.984294309019,-360.97209796455,-358.271783253556
78,4.1068232091784,321.683262781939,317.57643957276,-319.629851177349,2.0534116045892,23.559210729145,-270.45801811447,-261.084429955867,-256.337302489555,-263.334246887127,-266.165774071385,-274.449183341232
79,-6.44415444601327,255.579971318191,262.024125764205,-258.802048541198,-3.22207722300664,-32.4227529592608,-326.869631682726,-338.532796193496,-337.260659960273,-345.553794216481,-336.491773308371,-338.947612345743
80,-0.706202349625528,-51.2692450736649,-50.5630427240394,50.9161438988522,-0.353101174812764,-256.572132359302,-462.581221994566,-470.754139607365,-448.222309090052,-463.496014180768,-455.27440981596,-464.635234367393
81,-9.2923390455544,-69.4272218653641,-60.1348828198097,64.7810523425869,-4.6461695227772,-206.478038986286,-352.821195152763,-346.038306924689,-345.747911794344,-343.060350909131,-348.361857398791,-344.510224968428
82,0.69331906476873,77.6656169033377,76.9722978385689,-77.3189573709533,0.346659532384365,-84.5301243340364,-246.032546506642,-233.646924497036,-227.88901005761,-243.422129032755,-235.572630514071,-247.897862936574
83,11.8420610038738,-82.6632963168086,-94.5053573206824,88.5843268187455,5.92103050193691,-241.751274641996,-388.99719196331,-400.735455805843,-404.836012809887,-391.695202402712,-399.628209678514,-389.079048269545
84,-1.26188231416745,-20.9664021799108,-19.7045198657434,20.3354610228271,-0.630941157083726,-184.95089904542,-350.197278225096,-348.493894767889,-360.583839749946,-335.197047085647,-356.440188115666,-345.245129042829
85,-0.774761159351328,106.867619100434,107.642380259786,-107.25499968011,-0.387380579675664,-57.7878420599591,-223.218064379704,-216.736834474606,-210.575087850128,-231.399897716503,-229.614342574554,-222.571449984214
86,1.42163204375538,-134.039444815746,-135.461076859501,134.750260837624,0.71081602187769,-234.364750045832,-333.268423232163,-320.182267248427,-351.177981887944,-355.697656903591,-335.833099247509,-333.362235066597
87,-13.6070944248058,-49.8545930370747,-36.2474986122688,43.0510458246717,-6.80354721240292,-135.023366965004,-233.79923531774,-232.524724419723,-225.029121234955,-216.891496618569,-229.258834074368,-223.536985530634
88,0.0671269833983388,3.86669372653705,3.79956674313871,-3.83313023483788,0.0335634916991694,-83.0899769042298,-169.979520551598,-181.609551886446,-167.633248855011,-177.08481878505,-172.220958400081,-175.821389571385
89,-9.01237151274108,-13.0973489159078,-4.0849774031667,8.59116315953725,-4.50618575637054,-121.452907409825,-238.820837416482,-237.672357336647,-230.396184672107,-235.670275652548,-236.68429322142,-253.480077594548
90,8.83770121133421,-73.595162867714,-82.4328640790482,78.0140134733811,4.4188506056671,-166.438285520446,-250.443706961843,-246.848931894056,-260.217749751057,-249.376387246215,-253.06674201155,-264.002228449797
91,3.20261770585785,-66.244333803159,-69.4469515090168,67.8456426560879,1.60130885292892,-121.834813032881,-174.222674556746,-177.435513639124,-179.928360379738,-163.533900340466,-178.438268370082,-181.820139448129
92,-2.59629143218626,69.5585382297286,72.1548296619148,-70.8566839458217,-1.29814571609313,40.2719198117411,8.38900996156735,-4.88245744007872,-13.3284938780416,-9.22346668000682,5.43064949774998,-23.503859432356
93,-10.713800915808,10.5688518381794,21.2826527539874,-15.9257522960834,-5.35690045790398,-27.4722770202206,-76.2272067944286,-60.0113498519058,-48.5101873749227,-58.2813379278814,-59.3726901216141,-51.7369708737824
94,1.55036282079527,-261.350537548016,-262.900900368812,262.125718958414,0.775181410397636,-263.972057311796,-265.04321425478,-276.17195166662,-263.75099704985,-279.27174316661,-255.344711159443,-262.342550360481
95,4.66038393482449,1.98357573209796,-2.67680820272653,0.346616235314286,2.33019196741225,-29.6698315863759,-56.6628549700254,-45.2827515771496,-37.8070966937812,-34.1106153121509,-48.4982494938013,-32.8918566873472
96,-1.6126786978275,22.5720905291673,24.1847692269948,-23.3784298780811,-0.806339348913752,30.6284913543059,37.0722134816169,23.4062449625635,23.1718174351263,33.168463068956,23.6592969546909,33.4756364133791
97,0.275870934216073,-99.2089852514328,-99.4848561856488,99.3469207185408,0.137935467108036,-117.838061647781,-136.191267109913,-136.018082669674,-144.682122917497,-145.079057437542,-141.30026436731,-146.19909762952
98,1.03883599504479,31.9663488933002,30.9275128982554,-31.4469308957778,0.519417997522396,-19.3748676226387,-69.6772481435328,-65.3701888651121,-65.3570516653417,-71.2898233252636,-71.2972541705822,-69.1662357162568
99,2.00826831936138,88.6209741235944,86.612705804233,-87.6168399639137,1.00413415968069,52.680586537288,18.7484672703431,24.2226203376194,14.1768336541718,17.0165010552737,8.75467189360643,16.2696125381044
100,6.80056043950026,30.0728659532033,23.272305513703,-26.6725857334532,3.40028021975013,61.0073678259796,98.7424301382562,110.608462755918,114.024776403385,111.984785096458,110.519365379616,113.333142474847
101,0.14101939793909,-39.4086338891357,-39.5496532870748,39.4791435881052,0.0705096989695448,-24.5559727138316,-9.5622921405884,-13.9496026949491,-16.1430676509917,-17.6535868530045,-10.7759887407301,-11.3455925231101
102,6.21634378843009,-41.653325374471,-47.8696691629011,44.7614972686861,3.10817189421505,7.88843088079011,63.6465309244813,82.8096516042133,82.5563917162071,80.2998577143007,81.5937100815063,89.9844868737564
103,-5.30134974588873,0.554079743422335,5.85542948931106,-3.2047546163667,-2.65067487294436,68.9932766558486,132.131123822386,127.742587778834,126.536070365197,130.764803576603,126.77374480234,135.718305037473
104,5.83084336735192,84.3695148361439,78.538671468792,-81.454093152468,2.91542168367596,129.815019766567,181.091368064343,160.709849620966,189.884902917169,171.495267678198,176.222182899102,154.075300423487
105,-8.36688132036943,-47.2842767853581,-38.9173954649887,43.1008361251734,-4.18344066018471,39.1428844861512,117.203164437291,113.189083503763,113.251341252762,120.317905111675,129.791966011544,113.762058106891
106,1.63859865927952,-51.0011138538248,-52.6397125131043,51.8204131834646,0.819299329639762,41.4723765693634,135.584465651831,126.729948739201,116.71301578256,119.481805230665,128.09042001795,128.638588744361
107,6.06966874864884,19.5528258263075,13.4831570776587,-16.5179914519831,3.03483437432442,96.7253852601134,179.967613442568,164.265170203958,164.475298219215,170.545021351631,179.960976416216,181.466535166983
108,4.11093724251259,-58.1968016435276,-62.3077388860402,60.2522702647839,2.0554686212563,38.7893779974693,139.886494880979,138.585501240217,135.148903794441,125.205864680756,114.55104298846,148.752261187561
109,-7.74504133313894,-46.2043348567677,-38.4592935236287,42.3318141901982,-3.87252066656947,68.0864423371531,174.632178197935,172.716164698155,159.360260536836,161.910726509203,167.690022396622,165.823130610224
110,-5.03922022195184,48.279361497378,53.3185817193298,-50.7989716083539,-2.51961011097592,161.726504481092,270.134427242854,297.234054900735,303.474692351621,306.464549224591,295.224009915401,284.800749467366
111,-13.3752714092261,15.6300649190962,29.0053363283223,-22.3177006237092,-6.68763570461306,141.435929366155,253.866522403987,245.633517412905,242.726590424427,255.046841156669,262.543716283457,264.753602235636
112,11.9775175854156,72.9952251852956,61.0177075998799,-67.0064663925878,5.98875879270781,207.148711707428,353.279715814977,360.317899941438,365.97244190349,367.101932306716,358.330235633883,358.238815428922
113,2.6203878702072,-174.395340017771,-177.015727887978,175.705533952874,1.3101939351036,621.216004894974,1419.44773767793,1410.11034839408,1393.59529939678,1399.57703834015,1410.16346826451,1403.9217786724
114,3.63407256169012,19.7852632641734,16.1511907024833,-17.9682269833284,1.81703628084506,1806.3285354102,3596.50588011791,3601.16420259283,3595.11725977811,3585.30089428407,3593.09004615661,3600.14035905842
115,-0.337901897437405,-54.8678728070809,-54.5299709096435,54.6989218583622,-0.168950948718702,3477.00153354114,7008.53303799193,7014.11983882033,7007.91969027024,7002.13166898119,7018.71399130553,7001.77864809684
116,5.88681687743519,-92.8506611034391,-98.7374779808742,95.7940695421566,2.9434084387176,6322.93208521204,12744.601648405,12753.3164330926,12740.0040666111,12742.1679388256,12754.8946588061,12756.7645350955
117,2.85876870338689,-409.798297186528,-412.657065889915,411.227681538221,1.42938435169344,11437.1653895476,23286.9878449851,23288.8443215844,23268.6311213051,23259.9566504407,23303.9326544777,23295.4294310435
118,-9.04561327685951,-716.747224712948,-707.701611436089,712.224418074518,-4.52280663842976,27944.0185875819,56595.7387865999,56620.1055696298,56550.0494494214,56522.3599966643,56626.9236949908,56620.512012123
119,1.01978931840858,-326.138740772411,-327.158530090819,326.648635431615,0.509894659204292,11743.1547713979,23813.4680728867,23829.1046235969,23805.1570055992,23786.5965315275,23827.938489262,23835.2880122745
120,-2.24700427878997,-662.228297547728,-659.981293268938,661.104795408333,-1.12350213939499,6271.77425159358,13203.5297964561,13206.4739577609,13186.2688754508,13179.6007361471,13206.6728344033,13205.5625638016
121,1.73785478825448,-436.618899952649,-438.356754740904,437.487827346777,0.86892739412724,3659.47827292478,7757.31330059047,7758.82879088243,7749.19538491339,7743.73623451503,7766.99245155021,7764.37742752189
122,-6.86973516124999,-218.969418025692,-212.099682864442,215.534550445067,-3.434867580625,2124.97621561092,4462.05211408628,4459.21594910204,4459.82579132007,4462.62316698651,4455.7976005447,4455.84381330363
123,2.45293833635515,-219.693928359629,-222.146866695985,220.920397527807,1.22646916817757,1087.32052768512,2396.78792206623,2407.48281173944,2399.4919004094,2388.59587606543,2398.81754401544,2401.87079829306
124,-1.3449968645582,-59.67075156793,-58.3257547033718,58.9982531356509,-0.672498432279099,616.40950611353,1291.14476693043,1288.04786425506,1304.33688090628,1286.08670635778,1292.21385426947,1291.66893516242
125,7.14152130606817,-0.356695119407959,-7.49821642547613,3.92745577244204,3.57076065303409,637.093230905448,1281.68467823637,1266.74131369859,1293.67000818052,1286.30067664955,1274.48591579398,1281.93542305467
126,9.61907783237984,-66.3299553650722,-75.9490331974521,71.1394942812622,4.80953891618992,593.902703288899,1263.75443977525,1253.62949370308,1258.5883694792,1264.62650084961,1261.85061327514,1255.19063988701
127,-10.8177031923842,-168.899096076086,-158.081392883701,163.490244479894,-5.40885159619211,523.603682016343,1205.28875691639,1205.03116873265,1191.92651394414,1192.05208936604,1203.32427654817,1203.69907872708
128,-2.47212136286544,-30.4290102922823,-27.9568889294169,29.1929496108496,-1.23606068143272,622.927787127293,1273.812463184,1271.02143619477,1249.77142763225,1250.34930538471,1263.21319733607,1271.71406215895
129,-4.6578953328426,217.176729792991,221.834625125834,-219.505677459412,-2.3289476664213,789.79292755574,1357.75122998565,1356.04445713066,1373.50955770031,1353.4358593942,1363.89441707512,1358.23101870407
130,5.25806656063651,-7.06733625294873,-12.3254028135852,9.69636953326699,2.62903328031825,627.712242370122,1267.74988755383,1281.96140033702,1264.01320945323,1276.17032088275,1297.30168909355,1284.69332592978
131,0.253622467076639,-50.6465224274725,-50.9001448945492,50.7733336610108,0.126811233538319,592.542686847111,1235.98551858877,1248.41030027796,1234.44696044206,1251.37432811665,1239.57565526565,1243.24362082154
132,4.30062807275681,-14.4894169817562,-18.790045054513,16.6397310181346,2.1503140363784,609.180990719789,1237.15202649409,1247.30612071007,1250.93613773986,1246.63101585174,1252.75643292739,1247.54082378835
133,-1.66720581726986,11.0476528503641,12.714858667634,-11.881255758999,-0.83360290863493,653.702265707456,1294.68967274728,1295.69560508782,1288.65107740252,1272.6342590742,1278.75399081424,1293.20441573474
134,3.85311557515524,12.3975770582911,8.54446148313582,-10.4710192707134,1.92655778757762,631.292283237111,1254.04010499109,1262.66560863488,1272.87100526865,1279.05850886801,1263.56812872388,1263.37500188011
135,-0.431592850014567,-24.1305374156509,-23.6989445656363,23.9147409906436,-0.215796425007284,639.884556353994,1303.46805727363,1283.20701458742,1288.58719021062,1290.12545348541,1292.07400330881,1291.73311146678
136,-3.85013246670133,18.3890498241817,22.239182290883,-20.3141160575324,-1.92506623335066,665.116323658935,1307.99346502699,1296.840100439,1300.21124530566,1294.43411160036,1301.92123165473,1288.44987947721
137,7.78770684174378,148.817773915798,141.030067074054,-144.923920494926,3.89385342087189,774.380582913524,1407.73109875299,1390.37321035296,1393.34111641039,1394.52591012124,1388.55172882124,1394.15860210336
138,-2.94343966449378,-59.9514935319894,-57.0080538674956,58.4797736997425,-1.47171983224689,594.484813798132,1245.97768146376,1252.61979323401,1257.59778687372,1257.40575438694,1254.17409241351,1245.27085399689
139,0.907342985912692,-111.642027119902,-112.549370105815,112.095698612859,0.453671492956346,573.561340580403,1259.67205126662,1256.89498350263,1255.71765812451,1253.87738727411,1271.42342383999,1258.45928132909
140,6.14336610355531,-109.475782021298,-115.619148124853,112.547465073076,3.07168305177765,570.575972483261,1256.77109309137,1256.57195123428,1251.39744767171,1264.85985801948,1257.6391205565,1257.83692155138
141,3.78189303656109,-156.478007865051,-160.259900901612,158.368954383332,1.89094651828054,536.55722111791,1233.37434313743,1217.47167912743,1215.05387850164,1229.69030270207,1225.64060630227,1222.54227131678
142,13.5011346324754,-25.5573680780362,-39.0585027105117,32.307935394274,6.75056731623772,628.417752155729,1295.89400702197,1302.15045855375,1310.04267856354,1294.66594611068,1300.69510194502,1310.50830563938
143,-19.9699886371382,67.4688578761707,87.4388465133088,-77.4538521947397,-9.98499431856908,738.465868292187,1389.49289007107,1396.54532024884,1391.97679350764,1389.14856841022,1400.09939504901,1395.65330561894
144,-3.1960274608864,189.925850927044,193.12187838793,-191.523864657487,-1.5980137304432,817.32093522689,1441.51999206585,1441.77056185948,1432.41295902483,1427.84007867769,1437.70017446365,1444.24385020576
145,3.05314858118072,262.518937531044,259.465788949863,-260.992363240453,1.52657429059036,844.634292959629,1429.80279696939,1440.36549875431,1434.20011607558,1434.28399474663,1448.46902868286,1437.43340237121
146,0.147488426184282,82.4321126831928,82.2846242570085,-82.3583684701007,0.0737442130921409,680.268015818685,1278.25140738036,1275.46802956684,1285.8933364565,1272.06686870125,1276.65206962381,1283.18273948063
147,-9.06876404356444,-20.615223521716,-11.5464594781515,16.0808414999337,-4.53438202178222,640.046977279897,1291.64041403795,1292.86804323705,1288.97945906594,1281.1158309638,1277.58956634018,1290.72333342728
148,6.41688864200842,45.8669293563871,39.4500407143787,-42.6584850353829,3.20844432100421,687.1475784793,1334.84511624422,1337.73028232512,1352.38805573643,1332.90526067209,1347.29132814234,1326.4664487241
149,-1.87768866764964,41.3059445536637,43.1836332213134,-42.2447888874885,-0.938844333824818,676.615522170585,1310.04741111986,1306.00331563796,1308.1836690724,1333.74977122244,1307.22462305572,1312.84929903931
150,7.03588322372525,93.5805143688922,86.5446311451669,-90.0625727570296,3.51794161186263,685.193652450092,1283.84267375502,1281.97899949361,1294.18334343488,1301.79967735749,1296.67186243995,1294.09679894612
151,-4.96556936088018,-157.250475851644,-152.284906490764,154.767691171204,-2.48278468044009,519.063323270064,1190.41155303089,1206.75296884519,1186.7410303987,1178.77205205514,1195.61976610607,1203.89114946162
152,2.6071899550152,-69.5460344053863,-72.1532243604015,70.8496293828939,1.3035949775076,591.407271779099,1254.9677679186,1257.54635976852,1258.51537121303,1262.99541446945,1249.82156527176,1250.06915213051
153,4.46074429503642,-51.0689015081443,-55.5296458031808,53.2992736556625,2.23037214751821,619.858081353625,1295.24580851043,1297.95030761295,1277.20244944587,1287.38935308714,1299.56630636533,1291.57806769881
154,-7.11377081516548,-99.739334455051,-92.6255636398855,96.1824490474683,-3.55688540758274,556.208699549068,1205.04296273802,1196.81655225897,1212.72414354168,1198.47807879475,1196.85113163662,1219.53633234205
155,-12.9842520102684,-7.19909832405392,5.78515368621447,0.706972318919725,-6.4921260051342,652.927866992773,1300.07058029933,1303.01459524603,1299.81804737865,1302.10129195746,1284.82880576813,1281.89476394697
156,3.48612091611722,-162.155206777388,-165.641327693505,163.898267235447,1.74306045805861,520.837779879294,1207.31688745209,1212.21924167432,1195.18140372843,1197.1360658631,1205.36313401267,1207.52078409266
157,-6.80005968853948,-117.149875263276,-110.349815574737,113.749845419006,-3.40002984426974,547.112729024855,1204.57527362445,1189.14168189769,1197.99983234869,1184.08209367498,1207.79112792251,1194.29933278452
158,5.22773199345102,-31.6230509579182,-36.8507829513692,34.2369169546437,2.61386599672551,561.362998205877,1159.57677936312,1162.22998214848,1163.01425513194,1168.73731880324,1174.25797980363,1169.85134794118
159,8.06861983900308,-103.87914180354,-111.947761642543,107.913451723041,4.03430991950154,937.559130066307,1987.06602177516,1999.11247343596,1984.56604687293,1978.52265677834,1998.92773739918,1984.27470139653
160,9.55752342191408,-103.908603214455,-113.466126636369,108.687364925412,4.77876171095704,1753.31235810718,3620.09084285074,3621.51470786627,3606.93126612765,3601.92751198387,3623.43698782899,3620.79907116582
161,5.00956668157596,-85.7768167712784,-90.7863834528544,88.2816001120664,2.50478334078798,3050.13742570531,6191.06123486348,6189.20105320305,6189.17689946908,6187.75564750403,6205.17185106571,6198.19927105337
162,-8.15443456897628,31.5056843487837,39.66011891776,-35.5829016332718,-4.07721728448814,5333.88524332008,10628.1103677224,10625.5366529821,10617.5486428759,10603.3282858808,10633.2143371811,10635.7385083357
163,-10.3303787862242,-136.143233154668,-125.812854368443,130.978043761555,-5.16518939311209,9200.44843334566,18526.7097210598,18523.6707691115,18525.8163141754,18508.440500129,18519.7520104773,18542.437195139
164,5.88230876412126,-328.713105723058,-334.595414487179,331.654260105119,2.94115438206063,21610.6263186027,43555.8480516926,43584.025258427,43537.6133916241,43503.4359854866,43596.1912603758,43590.4368244446
165,-1.49555256424355,-146.990337289928,-145.494784725684,146.242561007806,-0.747776282121777,9003.97484375002,18153.4444722257,18165.1635777185,18135.5067602354,18144.5281272148,18178.3561878074,18168.9241419779
166,11.6734027849743,-16.7412078370398,-28.4146106220142,22.577909229527,5.83670139248716,4997.96390228919,10024.3424152004,10039.2704345933,10038.1145627795,10017.1246696839,10015.4267686331,10022.3078620362
167,-5.26418867570465,60.8620291599364,66.126217835641,-63.4941234977887,-2.63209433785232,2882.03792557996,5697.94963332429,5700.11461453332,5695.11529604113,5680.45049636936,5694.58505559503,5686.66674424644
168,-3.6607948516903,51.0888443358126,54.7496391875029,-52.9192417616578,-1.83039742584515,1537.51260153623,3020.27556388496,3012.42245354928,3017.44419921894,3016.79869561028,3002.67934262872,3016.64001090472
169,-9.91522184960195,187.5069607193,197.422182568902,-192.464571644101,-4.95761092480097,852.636554908662,1507.85092724842,1519.46348365478,1492.84523776948,1522.17643783608,1521.87657189427,1511.69319414411
170,7.43315737199737,374.259308625973,366.826151253976,-370.542729939974,3.71657868599868,510.184860426059,653.543569598143,647.871840899199,648.205453690316,658.464991751564,670.260037936299,664.625704253733
171,0.122750945331063,201.983458631497,201.860707686166,-201.922083158832,0.0613754726655316,393.166475223508,584.47224276085,573.427199272526,588.129276360647,595.803291896795,600.315034113009,588.637859079055
172,-5.36808012673282,276.7623544909,282.130434617633,-279.446394554267,-2.68404006336641,422.173643868198,562.216853118764,562.304736688937,555.011384481681,557.99183937718,550.894179274706,556.910372453596
173,1.18850183629547,32.17312964148,30.9846278051846,-31.5788787233323,0.594250918147736,-363.633743020706,-758.252113846596,-799.337908767164,-771.588022745185,-782.749935908912,-768.751662233961,-776.274371555774
174,-0.833400555886328,-52.3448975624342,-51.5114970065479,51.928197284491,-0.416700277943164,-1439.37417732988,-2827.23685765322,-2814.00944917995,-2816.20983123884,-2830.71371299404,-2822.3809629629,-2823.89400037561
175,-2.5353319037531,160.409273459722,162.944605363475,-161.676939411598,-1.26766595187655,-2952.24871521359,-6067.44203579065,-6079.06755445705,-6067.97939067864,-6067.21957930067,-6076.78708845869,-6076.76746148273
176,2.69931778570754,-13.3613396611472,-16.0606574468547,14.710998554001,1.34965889285377,-5982.36551687485,-11948.6703763028,-11939.3790256007,-11936.7776760089,-11915.4504635005,-11943.313322024,-11935.6909408839
177,-0.929629778809613,297.445802131027,298.375431909837,-297.910617020432,-0.464814889404806,-10904.8985693904,-22108.1725706906,-22084.6441996023,-22088.7724672276,-22066.661381243,-22110.6201836564,-22113.4532724767
178,1.45341618775274,761.949161913246,760.495745725493,-761.22245381937,0.726708093876368,-26969.689477436,-54699.8747005975,-54713.366236311,-54672.8481886284,-54639.9051763196,-54738.3127226702,-54743.4761638496
179,3.94910250979592,302.100432492327,298.151329982531,-300.125881237429,1.97455125489796,-10660.9933626797,-21620.1380553418,-21615.4183094338,-21611.0337492128,-21597.6119816665,-21637.3704611817,-21634.7920618899
180,-8.88398358877748,123.68639649509,132.570380083867,-128.128388289479,-4.44199179438874,-5492.64000746356,-11117.850395011,-11119.0991725428,-11121.77010497,-11103.3112030155,-11123.5773974695,-11113.1178419013
181,9.74872562111705,40.5557762974058,30.8070506762888,-35.6814134868473,4.87436281055852,-2677.18622432371,-5385.17949932371,-5389.77010299815,-5372.10955922114,-5378.06476146961,-5393.36457599787,-5391.14217011776
182,-1.11888521417859,51.0871450557606,52.2060302699392,-51.6465876628499,-0.559442607089295,-962.283375356055,-1976.77278098205,-1986.46886594454,-1971.03186686203,-1979.59920273925,-1989.67186781712,-1984.0910958084
183,4.47277728264453,-20.1061804907222,-24.5789577733667,22.3425691320444,2.23638864132226,42.4875240885303,109.554005950427,98.1717579213146,102.040653110802,93.4271582998626,101.791474153171,103.689847339701
184,-1.38536770059727,-21.6748591152718,-20.2894914146746,20.9821752649732,-0.692683850298636,629.536450394386,1279.36239220345,1271.33269158436,1289.99262885819,1283.16668405,1276.63420939905,1280.72807441436
185,5.40426063467748,-5.86515127177699,-11.2694119064545,8.56728158911574,2.70213031733874,653.209939789755,1317.68929148596,1327.55057368573,1311.22316097727,1310.71927329007,1322.00553962638,1324.28508149381
186,-0.581016256095609,134.608123171085,135.189139427181,-134.898631299133,-0.290508128047804,741.271899132757,1347.35465883833,1348.22934304556,1340.35856682979,1345.80652537706,1364.41829388417,1354.95154700612
187,4.80817209646921,158.381011200516,153.572839104047,-155.976925152281,2.4040860482346,784.81943242022,1416.06602573639,1414.68683113411,1401.37998000404,1397.19375601932,1411.4223870998,1413.39128399143
188,-4.24356394089409,139.766199244419,144.009763185313,-141.887981214866,-2.12178197044705,774.597007348799,1405.18425151228,1393.51082051627,1398.63147009572,1404.03815285716,1397.88108566098,1399.95878629165
189,-11.6430099110876,-30.0679803376552,-18.4249704265676,24.2464753821114,-5.82150495554379,620.622058439258,1259.66908730508,1265.22311526374,1264.04749382907,1249.36158974096,1261.98575256905,1257.63009140326
190,11.9978583563934,-82.7097514173656,-94.707609773759,88.7086805955623,5.9989291781967,581.201890946366,1257.11139166649,1252.85257957745,1261.6324601107,1244.54912658193,1254.75636092314,1260.91818966562
191,12.5250537634711,-149.975142025476,-162.500195788947,156.237668907212,6.26252688173554,505.826827684796,1174.15385115854,1191.27862554323,1167.27999899193,1173.39265614396,1180.94583650783,1174.70282964478
192,-16.7622963663307,-357.898731140012,-341.136434773682,349.517582956847,-8.38114818316535,357.913055391837,1056.96254555736,1055.52102069117,1056.64682619338,1051.22378854369,1045.52816426742,1042.5544205136
193,4.18200977644301,-398.192682826833,-402.374692603276,400.283687715055,2.09100488822151,321.956609044151,1046.28791069158,1060.73020256503,1054.93028538208,1064.12782575516,1046.06636506328,1056.94595572146
194,-4.74399935014662,-213.860688050074,-209.116688699927,211.488688375,-2.37199967507331,452.330025933014,1113.77674056595,1112.74291428621,1118.85644230005,1127.6824569992,1130.70688980061,1117.59642538536
195,-2.58637140903738,-84.1651058588468,-81.5787344498094,82.8719201543281,-1.29318570451869,1008.54674251904,2098.6722194879,2095.38348544712,2081.3812985527,2098.17265734595,2100.2682458621,2100.50734695225
196,-8.50150525037316,-52.3666905827413,-43.8651853323681,48.1159379575547,-4.25075262518658,1800.50329106869,3644.87176746974,3634.90561134103,3648.19863526177,3635.18747963806,3636.29546382756,3646.69566663477
197,13.6943803343747,-59.1120022475952,-72.80638258197,65.9591924147826,6.84719016718736,3027.20011168174,6127.20660594545,6140.34440703801,6124.59721531303,6128.28355884828,6139.38576397489,6141.57454658215
198,2.56511552425218,-201.625509487378,-204.19062501163,202.908067249504,1.28255776212609,5041.57700975417,10287.34464452,10285.9614720121,10267.3758354293,10275.5507765524,10299.2766750258,10281.693269255
199,-7.44036736540147,-435.007781521592,-427.56741415619,431.287597838891,-3.72018368270074,8723.94818681011,17875.4637877764,17885.4560505591,17871.204395055,17860.6530282404,17894.0028534249,17909.8000071229
200,3.63819694751874,-566.652499530028,-570.290696477547,568.471598003787,1.81909847375937,20892.2217618097,42354.7342200969,42361.6260693583,42320.8807290287,42305.613293694,42392.1172779104,42387.1973976672
201,-1.49654785075109,-75.8791763216723,-74.3826284709212,75.1309023962967,-0.748273925375543,8805.87196822721,17686.1265649253,17716.5306327161,17688.1076164058,17662.4027287431,17688.3549149726,17698.2159747085
202,-13.0071648338926,-139.41595350526,-126.408788671368,132.912371088314,-6.5035824169463,4802.51349701405,9731.43578269947,9723.66157173307,9725.58373594456,9710.48551422931,9722.22392656162,9729.39779085913
203,5.74685661130934,-167.506419075304,-173.253275686613,170.379847380958,2.87342830565467,2634.7623117319,5442.77789915042,5425.39113331158,5424.81083377777,5429.8731470138,5448.64874627607,5442.73761275967
204,2.66027367755305,-22.2770506419765,-24.9373243195296,23.6071874807531,1.33013683877653,1445.52655131786,2915.99042695525,2916.63447096106,2912.39652299066,2909.04102112132,2914.78282202026,2918.70005987547
205,6.92897056922084,64.6720011836151,57.7430306143942,-61.2075158990046,3.46448528461042,733.863771334509,1409.98451205462,1413.25673740302,1394.42036857581,1406.19770167494,1421.26666477611,1414.43194155744
206,-0.846141444140812,36.5288037482533,37.3749451923941,-36.9518744703237,-0.423070722070406,257.058499666397,476.742054140399,477.811590480647,482.984984802868,471.578629199619,475.993974066136,477.362084196269
207,8.78297067002859,-19.3652536624286,-28.1482243324572,23.7567389974429,4.39148533501429,188.792267923753,405.732760179963,395.498717773589,400.787015037553,382.705139164551,395.053864122165,384.149446528725
208,-2.42193375062197,-102.124209344795,-99.7022755941725,100.913242469484,-1.21096687531099,136.131075036013,371.9644256662,368.682644024055,387.760419969476,379.454999537265,377.37684080255,365.451998229895
209,-2.62030026866705,-72.780099185853,-70.159798917186,71.4699490515195,-1.31015013433353,173.269148750813,416.698096418811,407.085811164608,422.76196817233,406.430863973306,411.184080803447,411.22905230269
210,-0.995031795580871,-88.5114293760271,-87.5163975804462,88.0139134782366,-0.497515897790436,127.514741860388,342.545881301223,350.921320048656,340.991359960986,340.689841442392,343.903345244325,347.323974971136
211,8.5640141555923,32.5761737040011,24.0121595484088,-28.294166626205,4.28200707779615,182.721992654697,341.431825760985,346.494011277129,346.513994250388,325.812815343903,347.351854269451,349.06161065292
212,-13.210245107417,18.3183129202807,31.5285580276977,-24.9234354739892,-6.6051225537085,219.62213946243,407.715720897162,399.617722404306,404.966237708664,420.828298442153,411.838414666039,414.654309989419
213,9.41618748244946,108.961772969284,99.5455854868342,-104.253679228059,4.70809374122473,265.575121342161,431.604657197488,452.505539628153,442.230188543792,455.561724351661,440.386142526695,429.960434852517
214,10.1072809536126,114.124748688744,104.017467735132,-109.071108211938,5.05364047680632,303.467313520334,502.917159305536,509.510250740015,510.722827968944,506.559511638858,519.708271115553,513.082425619272
215,-6.487044996029,-30.0531331027159,-23.5660881066869,26.8096106047014,-3.2435224980145,176.648690555972,376.863469218632,382.693504254334,377.571886593883,377.934425263113,372.301413486421,371.469711004989
216,5.03897681608214,-141.659025705361,-146.698002521443,144.178514113402,2.51948840804107,63.5783269742824,273.854656470008,271.935704615054,263.007420158421,271.7042791493,265.729610139853,274.517033998127
217,-10.6064684519079,-73.5464002399822,-62.9399317880743,68.2431660140282,-5.30323422595393,147.933971107253,358.807874002581,352.280591600225,355.042873119062,359.940863306547,335.774045691098,358.386293786141
218,4.94340190346702,-136.016732379561,-140.960134283028,138.488433331295,2.47170095173351,64.4759728492354,269.912079981499,263.622682919522,255.464125694474,251.597052470053,258.324928042013,266.624192280753
219,-5.33296390768373,-81.3660819701327,-76.0331180624489,78.6996000162908,-2.66648195384187,122.406198248325,320.8455145591,311.394190772087,314.940048649674,305.135413600743,322.483124774211,324.043366214377
220,0.523782707139617,25.3241012817016,24.800318574562,-25.0622099281318,0.261891353569808,178.552538828895,332.304759083228,315.326908217598,329.471116556437,325.887629913836,343.480794419127,322.819918505382
221,3.27341740170959,-121.477510911471,-124.75092831318,123.114219612326,1.6367087008548,67.5044046496914,259.759737612563,256.233610950876,253.271304686321,252.432865784183,250.351029968471,254.742158708454
222,-3.98693466850091,106.987946939655,110.974881608156,-108.981414273905,-1.99346733425045,255.75418513031,400.533488652465,416.659209561301,409.036290191551,406.101211223315,396.642388639448,400.153297984856
223,0.0706448234559502,76.5794337216648,76.5087888982089,-76.5441113099369,0.0353224117279751,193.225016076904,309.941243255598,305.921889245888,310.633950096817,309.358869051881,319.774384785444,317.5097522914
224,3.98829026106978,32.8792209830135,28.8909307219437,-30.8850758524786,1.99414513053489,172.341853472608,315.792776223272,306.051249428914,294.146449464635,307.035480252933,296.018443768116,304.470325804403
225,-7.05524410394719,-96.9171753358969,-89.8619312319497,93.3895532839233,-3.52762205197359,46.3122528897511,182.486437011452,202.859160560678,179.496659547731,201.016344339063,193.643385691714,182.898147814558
226,11.7431806741224,38.182410379377,26.4392297052545,-32.3108200423158,5.87159033706121,165.00436508235,303.569500459445,307.91688518101,310.949449569278,314.376526088367,305.937709410675,301.541970138904
227,-4.76121745200362,13.166581161262,17.9277986132656,-15.5471898872638,-2.38060872600181,134.676678947668,251.42555928207,271.090964462084,273.854338084086,262.128344343917,273.386082318291,271.400400727929
228,-4.87971794637269,22.6256061038875,27.5053240502602,-25.0654650770739,-2.43985897318635,144.35986832637,261.21441260248,278.619419078692,281.068010372925,270.589557423809,280.00645572861,273.718875344639
229,0.341745735873701,-124.828078583058,-125.169824318931,124.998951450994,0.170872867936851,-0.368924681155477,124.43197495662,131.412344808545,125.577123127732,138.281519342388,142.199089236266,137.432299814333
230,-1.82985290314537,148.18973443564,150.019587338786,-149.104660887213,-0.914926451572683,215.518042535739,281.016497732693,270.733182030439,286.456612205511,275.861614558351,276.19863712971,271.115157953376
231,-7.39752807322657,81.2366376486316,88.6341657218582,-84.9354016852449,-3.69876403661328,165.465098207162,242.296030692465,227.27044463472,243.749986342096,229.25606661223,222.473635148373,231.288074362557
232,-3.14730501838494,149.285976464365,152.43328148275,-150.859628973558,-1.57365250919247,264.167412492432,375.901543502114,364.598631124449,374.720651905198,374.014319897222,373.729859501414,372.056049267034
233,-1.85317843599478,49.9789064592333,51.832084895228,-50.9054956772306,-0.926589217997389,152.257378740003,252.682672584779,240.273045850423,224.401021561032,246.481311017269,234.247984933259,239.256608444528
234,15.3800127509458,-9.6624132936995,-25.0424260446453,17.3524196691724,7.69000637547288,81.5984919316979,188.239409908041,185.167163066857,165.563304477575,186.38982529621,181.821255253017,181.121289873234
235,-3.83838059991831,97.0317897009663,100.870170300885,-98.9509800009255,-1.91919029995915,135.230955015591,169.591739730298,163.746388262283,166.559863920556,171.721502051165,157.008421890292,160.917252214334
236,-4.97321690685931,228.993847623206,233.967064530065,-231.480456076635,-2.48660845342965,244.934921610737,255.902778691408,270.228280295589,266.874502652499,260.502187861392,268.305869841424,271.912505704415
237,8.94824933033669,57.1054967857781,48.1572474554414,-52.6313721206097,4.47412466516835,130.925713364923,213.694179274404,204.037103738403,209.497152619209,218.909514215193,210.125754156208,223.861264053849
238,-0.20574568916345,50.2309361547523,50.4366818439157,-50.333808999334,-0.102872844581725,156.278078141258,262.119474438601,261.083342210186,261.105277090275,267.630977270135,267.031502314116,253.264358143555
239,0.958598318480654,36.4091744244506,35.45057610597,-35.9298752652103,0.479299159240327,113.056491058305,190.662406010641,199.722538540809,203.291786769696,189.512540566269,190.215623734606,197.956541133404
240,12.1107007850369,140.979486320517,128.86878553548,-134.924135927999,6.05535039251845,-356.140682723024,-841.150150981528,-843.541699512221,-838.907592022559,-854.065150261216,-861.813119701634,-847.217557428987
241,-1.95928048959468,130.436314938735,132.39559542833,-131.415955183533,-0.979640244797338,-1281.45070093081,-2695.29699728996,-2694.13180285104,-2686.13272177192,-2681.88080211211,-2689.22866909983,-2694.42342307317
242,-0.0698036371322814,50.1698772302188,50.2396808673511,-50.204779048785,-0.0349018185661407,-2846.37709891147,-5742.99387869029,-5751.12440689173,-5731.84291718405,-5728.556909231,-5741.69273084047,-5749.19208206967
243,0.484561677963939,541.620793393173,541.136231715209,-541.378512554191,0.242280838981969,-4978.72361628783,-10498.5834642909,-10491.4106537329,-10482.6729330593,-10476.083371041,-10494.6580908732,-10498.6051401883
244,-5.62040955357952,388.221588944696,393.841998498276,-391.031793721486,-2.81020477678976,-9744.86545872655,-19883.5729159514,-19887.3971029588,-19873.2836381296,-19870.2684528753,-19893.9562274201,-19887.2848395994
245,3.1920529055642,475.672332871036,472.480279965472,-474.076306418254,1.5960264527821,-24179.656819589,-48831.7939191436,-48839.4723793913,-48791.6246290301,-48756.5976443843,-48856.6530871657,-48842.3717856485
246,-4.46573450785945,195.498718864052,199.964453371911,-197.731586117981,-2.23286725392973,-10437.8084496268,-21075.5813526255,-21079.6600483109,-21057.747519993,-21049.2682987892,-21076.8436826121,-21077.7961644291
247,-5.00171962496825,14.6561731370166,19.6578927619848,-17.1570329495007,-2.50085981248412,-6189.55325589328,-12398.7644045485,-12403.0478122622,-12386.9549678026,-12387.428014869,-12417.7355340707,-12406.2668576119
248,0.69574020410073,-18.9078123435611,-19.6035525476618,19.2556824456115,0.347870102050365,-3820.66800920467,-7621.73246586169,-7624.9040165804,-7622.06887026055,-7629.01816390257,-7636.14777187302,-7637.85067505576
249,-4.27123651100555,21.1486721705587,25.4199086815643,-23.2842904260615,-2.13561825550278,-2376.06794090405,-4777.55579048966,-4785.89838058627,-4765.95116682269,-4761.6982116563,-4766.33478567761,-4778.59445329595
250,-10.7457589793485,179.700853979826,190.446612959175,-185.0737334695,-5.37287948967423,-1362.44764520187,-2915.34190336292,-2910.41779644051,-2919.42654542919,-2904.76900459043,-2925.3467523756,-2916.08716467462
251,0.66706976108253,136.327391185798,135.660321424715,-135.993856305256,0.333534880541265,-878.539664250609,-1892.73964992593,-1898.32014769997,-1890.91005550296,-1899.30129705643,-1900.98524147965,-1900.13169636365
252,-17.3400624186033,27.9816626824613,45.3217251010647,-36.651693891763,-8.67003120930167,-948.964919538485,-1943.25156417803,-1940.92777385496,-1955.69352694013,-1938.18110076545,-1936.69580882564,-1938.94586469265
253,0.770474226155784,-43.2955574029183,-44.0660316290741,43.6807945159962,0.385237113077892,-1005.9030645595,-1967.74009748994,-1982.49115708048,-1978.31958992069,-1974.08161859654,-1980.48684305532,-1992.24979733853
