sep=, 
EKG Messung vom 28.01.2019 18.48.06
gemessen mit dem EKG Dongle der Hochschule Luzern BAT HS18

 
 , Lead1, Lead2, Lead3, aVR, aVL, aVF, V1, V2, V3, V4, V5, V6
0,-56.0387597068911,167454.294205031,167510.332964738,-167482.313584885,-28.0193798534456,83755.1664823691,0,0,0,0,0,0
1,-154.810166817973,461184.43252224,461339.242689058,-461261.837605649,-77.4050834089867,230669.621344529,0,0,0,0,0,0
2,-316.894951511873,943875.774704391,944192.669655903,-944034.222180147,-158.447475755936,472096.334827952,0,0,0,0,0,0
3,-584.659623464569,1741910.97731681,1742495.63694027,-1742203.30712854,-292.329811732285,871247.818470137,0,0,0,0,0,0
4,-1080.02525305608,3217950.27342468,3219030.29867774,-3218490.28605121,-540.012626528041,1609515.14933887,0,0,0,0,0,0
5,-2640.57360408548,7874540.79088917,7877181.36449326,-7875861.07769121,-1320.28680204274,3938590.68224663,0,0,0,0,0,0
6,-1092.32963294163,3218138.28785461,3219230.61748755,-3218684.45267108,-546.164816470817,1609615.30874378,0,0,0,0,0,0
7,-576.181905634468,1741866.08777178,1742442.26967741,-1742154.17872459,-288.090952817234,871221.134838705,0,0,0,0,0,0
8,-308.723129193997,943934.048351347,944242.771480541,-944088.409915944,-154.361564596999,472121.38574027,0,0,0,0,0,0
9,-156.573276838579,461109.653566526,461266.226843364,-461187.940204945,-78.2866384192894,230633.113421682,0,0,0,0,0,0
10,-39.9888256145932,167419.023320544,167459.012146158,-167439.017733351,-19.9944128072966,83729.5060730792,0,0,0,0,0,0
11,-10.3489267432014,-64.5547218255233,-54.2057950823219,59.3802584539226,-5.17446337160072,-27.1028975411609,0,0,0,0,0,0
12,-5.69317475915886,35.7958732587285,41.4890480178874,-38.642460638308,-2.84658737957943,20.7445240089437,0,0,0,0,0,0
13,2.43334910264821,-208.62735858871,-211.060707691358,209.844033140034,1.2166745513241,-105.530353845679,0,0,0,0,0,0
14,-1.03991602826864,47.9330343082838,48.9729503365525,-48.4529923224181,-0.519958014134318,24.4864751682762,0,0,0,0,0,0
15,14.8827163685637,21.5570717065712,6.67435533800744,-14.1157135222893,7.44135818428185,3.33717766900372,0,0,0,0,0,0
16,-0.624214118317468,34.7789345593483,35.4031486776657,-35.091041618507,-0.312107059158734,17.7015743388329,0,0,0,0,0,0
17,-15.539066720492,-35.8567072608275,-20.3176405403356,28.0871739005815,-7.76953336024599,-10.1588202701678,0,0,0,0,0,0
18,-5.6697748703009,13.0511081447767,18.7208830150776,-15.8859955799271,-2.83488743515045,9.36044150753878,0,0,0,0,0,0
19,8.3251419858716,-37.6784867440001,-46.0036287298717,41.8410577369359,4.1625709929358,-23.0018143649359,0,0,0,0,0,0
20,-15.0604637837096,-206.856194095977,-191.795730312268,199.325962204122,-7.53023189185478,-95.8978651561338,0,0,0,0,0,0
21,1.28952921309974,-72.3651308496192,-73.6546600627189,73.009895456169,0.64476460654987,-36.8273300313595,0,0,0,0,0,0
22,2.22868089951226,-146.049394270434,-148.278075169947,147.16373472019,1.11434044975613,-74.1390375849733,0,0,0,0,0,0
23,0.805252627033042,145.447169367282,144.641916740249,-145.044543053766,0.402626313516521,72.3209583701246,0,0,0,0,0,0
24,-1.54607913564541,89.4049529625336,90.951032098179,-90.1779925303563,-0.773039567822707,45.4755160490895,0,0,0,0,0,0
25,-2.15936596025131,149.586578261078,151.745944221329,-150.666261241204,-1.07968298012565,75.8729721106647,0,0,0,0,0,0
26,4.17338296992239,18.1250619766361,13.9516790067137,-16.0383704916749,2.08669148496119,6.97583950335684,0,0,0,0,0,0
27,2.38919093343429,-87.422861183557,-89.8120521169913,88.6174566502741,1.19459546671715,-44.9060260584956,0,0,0,0,0,0
28,1.39377681232872,-284.88409085988,-286.277867672208,285.580979266044,0.696888406164362,-143.138933836104,0,0,0,0,0,0
29,17.4450647955819,-553.653167243174,-571.098232038756,562.375699640965,8.72253239779093,-285.549116019378,0,0,0,0,0,0
30,0.00781588759855367,-658.395394104009,-658.403209991608,658.399302047808,0.00390794379927684,-329.201604995804,0,0,0,0,0,0
31,13.7555987197265,-360.455730355054,-374.21132907478,367.333529714917,6.87779935986327,-187.10566453739,0,0,0,0,0,0
32,-4.18205062404741,-242.245047021133,-238.062996397086,240.15402170911,-2.0910253120237,-119.031498198543,0,0,0,0,0,0
33,1.72528043194325,55.8905890693422,54.165308637399,-55.0279488533706,0.862640215971624,27.0826543186995,0,0,0,0,0,0
34,-7.70442089109565,-28.5200128221768,-20.8155919310811,24.667802376629,-3.85221044554783,-10.4077959655406,0,0,0,0,0,0
35,-4.71174365258776,-157.167967674177,-152.456224021589,154.812095847883,-2.35587182629388,-76.2281120107946,0,0,0,0,0,0
36,2.59729460297967,90.9747937900247,88.377499187045,-89.6761464885349,1.29864730148984,44.1887495935225,0,0,0,0,0,0
37,-18.8532697432383,-105.776904409839,-86.9236346666003,96.3502695382194,-9.42663487161917,-43.4618173333001,0,0,0,0,0,0
38,-1.84530519478722,1.99846719772904,3.84377239251626,-2.92111979512265,-0.922652597393608,1.92188619625813,0,0,0,0,0,0
39,13.4524940725823,-23.9755406894838,-37.4280347620661,30.7017877257749,6.72624703629117,-18.714017381033,0,0,0,0,0,0
40,-5.60370792151662,-139.697179600596,-134.09347167908,136.895325639838,-2.80185396075831,-67.0467358395399,0,0,0,0,0,0
41,-8.75643374380888,76.702576599695,85.4590103435039,-81.0807934715995,-4.37821687190444,42.729505171752,0,0,0,0,0,0
42,10.6378384968848,115.723396294721,105.085557797836,-110.404477046279,5.3189192484424,52.5427788989182,0,0,0,0,0,0
43,5.89119744242635,-232.636321534781,-238.527518977207,235.581920255994,2.94559872121317,-119.263759488604,0,0,0,0,0,0
44,-5.13253548680223,68.3891040717135,73.5216395585157,-70.9553718151146,-2.56626774340111,36.7608197792579,0,0,0,0,0,0
45,-1.19916399291833,-158.583851699048,-157.38468770613,157.984269702589,-0.599581996459165,-78.6923438530648,0,0,0,0,0,0
46,8.70765870338073,54.3928492870473,45.6851905836666,-50.0390199353569,4.35382935169037,22.8425952918333,0,0,0,0,0,0
47,9.92553770367522,-51.5700886953564,-61.4956263990316,56.532857547194,4.96276885183761,-30.7478131995158,0,0,0,0,0,0
48,-11.80521232725,68.1347306738608,79.9399430011108,-74.0373368374858,-5.90260616362502,39.9699715005554,0,0,0,0,0,0
49,7.04985992933507,-45.3201392574701,-52.3699991868052,48.8450692221377,3.52492996466754,-26.1849995934026,0,0,0,0,0,0
50,7.41879339929437,60.0741586145305,52.6553652152361,-56.3647619148833,3.70939669964719,26.327682607618,0,0,0,0,0,0
51,-5.56656520746765,-56.8021762461285,-51.2356110386609,54.0188936423947,-2.78328260373382,-25.6178055193304,0,0,0,0,0,0
52,5.22747349963174,123.523209679435,118.295736179803,-120.909472929619,2.61373674981587,59.1478680899017,0,0,0,0,0,0
53,-17.3729317401012,-14.3927998867875,2.98013185331365,5.70633401673695,-8.6864658700506,1.49006592665683,0,0,0,0,0,0
54,3.2196019286057,95.8395287082822,92.6199267796765,-94.2297277439793,1.60980096430285,46.3099633898382,0,0,0,0,0,0
55,-0.453986310749315,-0.408301722985925,0.0456845877633896,0.181308567611268,-0.226993155374657,0.0228422938816948,0,0,0,0,0,0
56,5.64929348955047,18.0363072099281,12.3870137203776,-15.2116604651528,2.82464674477524,6.19350686018879,0,0,0,0,0,0
57,1.79722595744533,-84.870681614615,-86.6679075720604,85.7692945933377,0.898612978722667,-43.3339537860302,0,0,0,0,0,0
58,-11.5683477793646,-50.2134506899165,-38.6451029105519,44.4292768002342,-5.78417388968228,-19.322551455276,0,0,0,0,0,0
59,0.418267596280202,-93.8012837931747,-94.2195513894549,94.0104175913148,0.209133798140101,-47.1097756947274,0,0,0,0,0,0
60,-2.8092240880942,-46.7135820513649,-43.9043579632707,45.3089700073178,-1.4046120440471,-21.9521789816354,0,0,0,0,0,0
61,2.23578658487531,149.898675810691,147.662889225816,-148.780782518254,1.11789329243766,73.8314446129079,0,0,0,0,0,0
62,-4.07339943930856,143.772278153978,147.845677593286,-145.808977873632,-2.03669971965428,73.9228387966432,0,0,0,0,0,0
63,6.03966430260334,38.1357463874738,32.0960820848704,-35.1159142361721,3.01983215130167,16.0480410424352,0,0,0,0,0,0
64,-9.41981857529026,-93.8862685719505,-84.4664499966602,89.1763592843054,-4.70990928764513,-42.2332249983301,0,0,0,0,0,0
65,-0.841854714992223,-133.800463472551,-132.958608757559,133.379536115055,-0.420927357496112,-66.4793043787795,0,0,0,0,0,0
66,-2.37916382492404,75.3119083503843,77.6910721753084,-76.5014902628463,-1.18958191246202,38.8455360876542,0,0,0,0,0,0
67,7.58631164970575,-18.9805154781207,-26.5668271278264,22.7736713029735,3.79315582485287,-13.2834135639132,0,0,0,0,0,0
68,4.87546810368076,-150.51493953992,-155.390407643601,152.952673591761,2.43773405184038,-77.6952038218005,0,0,0,0,0,0
69,6.4820313914679,-18.4877795560169,-24.9698109474848,21.7287952517509,3.24101569573395,-12.4849054737424,0,0,0,0,0,0
70,-2.17130070127314,43.1792622604698,45.350562961743,-44.2649126111064,-1.08565035063657,22.6752814808715,0,0,0,0,0,0
71,4.30464793657302,-22.3824671299371,-26.6871150665102,24.5347910982237,2.15232396828651,-13.3435575332551,0,0,0,0,0,0
72,-0.921512135537341,128.484481372288,129.405993507826,-128.945237440057,-0.460756067768671,64.7029967539129,0,0,0,0,0,0
73,-5.51109689910663,88.0253509624163,93.5364478615229,-90.7808994119696,-2.75554844955332,46.7682239307615,0,0,0,0,0,0
74,6.26067528789281,218.340373236395,212.079697948502,-215.210035592449,3.1303376439464,106.039848974251,0,0,0,0,0,0
75,-3.1716031251126,505.974906382791,509.146509507904,-507.560707945348,-1.5858015625563,254.573254753952,0,0,0,0,0,0
76,0.791065385768889,875.406682818953,874.615617433185,-875.011150126069,0.395532692884444,437.307808716592,0,0,0,0,0,0
77,3.4779915654799,327.472616724088,323.994625158608,-325.733620941348,1.73899578273995,161.997312579304,0,0,0,0,0,0
78,0.10195766686229,325.375790922437,325.273833255575,-325.324812089006,0.0509788334311452,162.636916627787,0,0,0,0,0,0
79,-19.6828799071955,423.640497133252,443.323377040448,-433.48193708685,-9.84143995359773,221.661688520224,0,0,0,0,0,0
80,-3.49596520431805,459.419221970922,462.91518717524,-461.167204573081,-1.74798260215903,231.45759358762,0,0,0,0,0,0
81,5.05545542790787,231.789235103701,226.733779675793,-229.261507389747,2.52772771395394,113.366889837896,0,0,0,0,0,0
82,5.3303121215431,95.9064130189945,90.5761008974514,-93.2412569582229,2.66515606077155,45.2880504487257,0,0,0,0,0,0
83,4.25518893805565,-23.8408876819303,-28.096076619986,25.9684821509582,2.12759446902783,-14.048038309993,0,0,0,0,0,0
84,-4.48013039553189,24.9990627903317,29.4791931858636,-27.2391279880976,-2.24006519776594,14.7395965929318,0,0,0,0,0,0
85,5.3640197107452,43.9428289718635,38.5788092611183,-41.2608191164909,2.6820098553726,19.2894046305591,0,0,0,0,0,0
86,-6.65427102576359,2.52259394404246,9.17686496980605,-5.84972945692425,-3.3271355128818,4.58843248490302,0,0,0,0,0,0
87,-8.59338455516263,-128.712206532626,-120.118821977463,124.415514255044,-4.29669227758131,-60.0594109887315,0,0,0,0,0,0
88,-7.25853771911352,-2.57133756935946,4.68720014975406,-1.0579312901973,-3.62926885955676,2.34360007487703,0,0,0,0,0,0
89,-0.255954745196505,-74.9190481302794,-74.6630933850829,74.7910707576812,-0.127977372598252,-37.3315466925415,0,0,0,0,0,0
90,3.45421615437954,23.9105088225333,20.4562926681538,-22.1834007453435,1.72710807718977,10.2281463340769,0,0,0,0,0,0
91,-0.634613875648938,-76.6209791311994,-75.9863652555505,76.303672193375,-0.317306937824469,-37.9931826277752,0,0,0,0,0,0
92,-2.33647766613285,32.652467769658,34.9889454357908,-33.8207066027244,-1.16823883306643,17.4944727178954,0,0,0,0,0,0
93,-0.206311025191098,127.011048134911,127.217359160102,-127.114203647507,-0.103155512595549,63.6086795800511,0,0,0,0,0,0
94,-5.75964089977788,-49.1146586743707,-43.3550177745929,46.2348382244818,-2.87982044988894,-21.6775088872964,0,0,0,0,0,0
95,-0.501520137040643,135.508952659467,136.010472796508,-135.759712727988,-0.250760068520322,68.0052363982541,0,0,0,0,0,0
96,9.77110913343495,21.0119954541151,11.2408863206801,-16.1264408873976,4.88555456671747,5.62044316034007,0,0,0,0,0,0
97,-3.59492997132475,169.162606450234,172.757536421559,-170.960071435897,-1.79746498566237,86.3787682107795,0,0,0,0,0,0
98,-8.75932193917106,155.219463917339,163.978785856511,-159.599124886925,-4.37966096958553,81.9893929282553,0,0,0,0,0,0
99,9.78741850919323,60.7206073632697,50.9331888540764,-55.826898108673,4.89370925459662,25.4665944270382,0,0,0,0,0,0
100,-1.13388483220479,69.92279209962,71.0566769318248,-70.4897345157224,-0.566942416102393,35.5283384659124,0,0,0,0,0,0
101,-5.46307314603473,-64.1933812449861,-58.7303080989514,61.4618446719687,-2.73153657301737,-29.3651540494757,0,0,0,0,0,0
102,4.889700018859,153.559264268581,148.669564249722,-151.114414259151,2.4448500094295,74.3347821248608,0,0,0,0,0,0
103,-8.34603678743588,16.7364469199383,25.0824837073742,-20.9094653136563,-4.17301839371794,12.5412418536871,0,0,0,0,0,0
104,7.42446078374633,-86.0046749887406,-93.4291357724869,89.7169053806138,3.71223039187316,-46.7145678862435,0,0,0,0,0,0
105,7.49239720741753,51.5195968933112,44.0271996858937,-47.7733982896025,3.74619860370876,22.0135998429469,0,0,0,0,0,0
106,1.31113499065395,112.800199230202,111.489064239548,-112.144631734875,0.655567495326977,55.7445321197738,0,0,0,0,0,0
107,3.0241605786432,46.2707501323603,43.2465895537171,-44.7586698430387,1.5120802893216,21.6232947768585,0,0,0,0,0,0
108,0.942186650645453,-139.042521599535,-139.98470825018,139.513614924857,0.471093325322727,-69.9923541250901,0,0,0,0,0,0
109,-8.0835010673909,60.7907570445677,68.8742581119586,-64.8325075782632,-4.04175053369545,34.4371290559793,0,0,0,0,0,0
110,2.82780855707824,-152.380018540571,-155.207827097649,153.79392281911,1.41390427853912,-77.6039135488245,0,0,0,0,0,0
111,0.516723753855331,-137.633690481336,-138.150414235191,137.892052358264,0.258361876927665,-69.0752071175957,0,0,0,0,0,0
112,0.369425357697764,-29.7960275118239,-30.1654528695217,29.9807401906728,0.184712678848882,-15.0827264347608,0,0,0,0,0,0
113,1.06072036203113,4.92597374945763,3.86525338742649,-4.39561356844206,0.530360181015567,1.93262669371325,0,0,0,0,0,0
114,-3.88357990726945,148.989544799872,152.873124707141,-150.931334753506,-1.94178995363472,76.4365623535705,0,0,0,0,0,0
115,0.629543554212432,180.009542277083,179.37999872287,-179.694770499977,0.314771777106216,89.6899993614352,0,0,0,0,0,0
116,-4.19898890506011,161.111280002195,165.310268907255,-163.210774454725,-2.09949445253005,82.6551344536274,0,0,0,0,0,0
117,1.42650776167284,-65.6295185816998,-67.0560263433727,66.3427724625362,0.713253880836419,-33.5280131716863,0,0,0,0,0,0
118,-2.99693551659584,-66.5963192959316,-63.5993837793358,65.0978515376337,-1.49846775829792,-31.7996918896679,0,0,0,0,0,0
119,3.12507465371164,-237.95089585692,-241.075970510632,239.513433183776,1.56253732685582,-120.537985255316,0,0,0,0,0,0
120,-11.0984115418105,20.7414226581168,31.8398341999273,-26.290628429022,-5.54920577090525,15.9199170999636,0,0,0,0,0,0
121,2.93004351921263,-11.7755315158574,-14.7055750350701,13.2405532754638,1.46502175960632,-7.35278751753503,0,0,0,0,0,0
122,5.72055762572563,91.1875145580561,85.4669569323305,-88.3272357451933,2.86027881286282,42.7334784661653,0,0,0,0,0,0
123,0.0121636296680663,4.22761573118623,4.21545210151817,-4.2215339163522,0.00608181483403314,2.10772605075908,0,0,0,0,0,0
124,3.17892801432754,87.7999956971034,84.6210676827759,-86.2105316899397,1.58946400716377,42.310533841388,0,0,0,0,0,0
125,5.02430511571583,-74.4482734916091,-79.472578607325,76.9604260494671,2.51215255785792,-39.7362893036625,0,0,0,0,0,0
126,-3.95687277117395,-57.516852464847,-53.5599796936731,55.5384160792601,-1.97843638558697,-26.7799898468365,0,0,0,0,0,0
127,-0.564344382873969,-100.897254030191,-100.332909647317,100.615081838754,-0.282172191436985,-50.1664548236586,0,0,0,0,0,0
128,6.35482594498899,45.130022922327,38.7751969773381,-41.9526099498325,3.17741297249449,19.387598488669,0,0,0,0,0,0
129,-1.9911428312771,-344.528104694095,-342.536961862817,343.532533278456,-0.995571415638551,-171.268480931409,0,0,136970.941189074,136898.272689238,136623.99024364,136557.579549659
130,-0.602646235900465,-495.346797141334,-494.744150905433,495.045474023384,-0.301323117950233,68103.8913194461,136702.526789798,136756.919898138,377238.136953466,377038.177176508,376282.939967095,376099.673195349
131,-1.20227161055664,-226.935372641165,-225.733101030608,226.334236835886,-0.601135805278318,188134.141170656,376494.015442344,376643.535529974,772084.7483727,771675.496910605,770129.824851927,769754.658024613
132,2.57069722082815,-271.386887984117,-273.957585204946,272.672236594532,1.28534861041408,385144.574855986,770563.107297177,770869.223911221,1424897.88428552,1424142.89813868,1421289.95657777,1420597.67541516
133,-6.12470714602387,-0.761551218689419,5.36315592733445,-2.30080235432251,-3.06235357301193,711047.375460608,1422089.38776529,1422654.18087096,2632338.48738173,2630944.03777794,2625673.63680256,2624394.58676699
134,-2.8971410265076,55.8681894469191,58.7653304734267,-57.3167599601729,-1.4485705132538,1313605.5068786,2627152.24842673,2628196.2346634,6441428.22093859,6438014.9912647,6425117.84442066,6421989.25525165
135,0.322465583623853,79.1068704772042,78.7844048935804,-78.9456376853923,0.161232791811926,3214416.38500757,6428753.98561025,6431309.18451936,2633106.37665031,2631718.82634802,2626451.66405931,2625161.10221523
136,-5.78922510030679,-131.337005817913,-125.547780717607,128.44239326776,-2.8946125501534,1313835.55755824,2627796.6628972,2628833.85753533,1425886.34221142,1425133.38789226,1422276.03419163,1421585.25686132
137,0.412999201827915,40.8340160007356,40.4210167989077,-40.6275163998216,0.206499600913958,711620.370041836,1423200.31906687,1423773.57919819,773378.933720006,772982.8346494,771426.038084071,771050.697485419
138,14.2260597592394,-2.00900976092089,-16.2350695201603,9.12203964054061,7.11302987961972,385912.875591259,771841.986252039,772145.764403846,378585.242466193,378391.364253894,377650.858258848,377453.846553696
139,-1.53082097359584,26.9079379044997,28.4387588780955,-27.6733483912976,-0.765410486797919,188965.06274899,377901.686739101,378067.897674533,138430.744225934,138357.165680036,138088.450232494,138016.996568625
140,8.80356588805444,-32.3817574283166,-41.1853233163711,36.7835403723439,4.40178294402722,69076.0428687607,138193.271060838,138229.073023347,1495.56554965049,1479.23703914694,1487.76876623693,1500.22012728764
141,-12.0645480893145,17.8346984641976,29.8992465535121,-23.8669725088548,-6.03227404465724,783.56215086233,1537.22505517115,1541.75321570464,1540.22311550489,1543.06638284799,1554.18699336125,1531.97355324152
142,-5.5845934827521,40.1144893191813,45.6990828019334,-42.9067860605574,-2.79229674137605,809.60761751057,1573.51615221921,1570.90962948819,1571.76811382471,1577.31906164397,1569.4155758,1575.58803032432
143,1.59953765047248,54.2920422011812,52.6925045507087,-53.4922733759449,0.799768825236242,846.37283194279,1640.05315933487,1634.43654340465,1638.64922845821,1630.25322451085,1632.20031568102,1641.04604525669
144,5.69591617627884,97.8081537318649,92.112237555586,-94.9601956437255,2.84795808813942,901.104712484492,1710.0971874134,1722.17409415831,1704.42971978485,1714.49074380327,1716.73486275255,1707.07519645907
145,-2.79081022460014,-82.1332415356592,-79.342431311059,80.7378364233591,-1.39540511230007,538.110985527223,1155.5644023655,1164.76139516328,1154.37687483209,1162.17957038054,1166.81315763542,1157.34840061769
146,-2.56458887699409,138.052173845237,140.616762722231,-139.334468283734,-1.28229443849705,789.308712957907,1438.00066319358,1428.30564316723,1444.63762790133,1436.79009784371,1420.35686770524,1436.19832128755
147,9.84756925716647,-83.9030506710988,-93.7506199282652,88.826835299682,4.92378462858323,645.321917476249,1384.39445488076,1379.91629926671,1368.71113101405,1377.6312294048,1376.87452218132,1381.17125866859
148,8.4254441531084,-88.8255997539382,-97.2510439070466,93.0383218304924,4.2127220765542,647.75384419036,1392.75873228777,1402.939762344,1398.84272435337,1384.64230622485,1402.9350297245,1393.58686775496
149,-5.880679798458,102.318612196075,108.199291994533,-105.258952095304,-2.940339899229,817.961813687551,1527.72433538057,1523.39425134295,1522.06637193743,1533.96123577422,1531.55923239206,1531.89697219519
150,-0.17278909709421,-114.251107882475,-114.078318785381,114.164713333928,-0.0863945485471049,639.776461213667,1393.63124121272,1403.6690738867,1399.88048721247,1399.38151493802,1402.69860178293,1421.92907061876
151,-0.653833021176979,-41.5796416630328,-40.9258086418558,41.2527251524443,-0.326916510588489,714.472557676141,1469.87092399414,1449.97624603609,1454.30949640303,1471.64883611028,1467.70138031893,1477.3628847331
152,13.8378357665788,61.5578634066333,47.7200276400545,-54.6389455233439,6.9189178832894,791.295191903584,1534.87035616711,1530.81507281357,1533.49434374555,1518.26425655623,1533.24258467837,1528.40477824162
153,-10.7307602298388,50.4445046663168,61.1752648961556,-55.8098847812362,-5.36538011491939,807.619347268803,1554.06342964145,1547.24842549904,1567.25202447755,1564.11730226321,1559.76437466359,1548.96545380648
154,6.24202504256391,56.7213245905004,50.4792995479365,-53.6003120692185,3.12101252128195,782.521824258103,1514.56434896827,1530.87656836992,1527.62492761077,1523.07246137745,1530.08368329602,1518.89926255881
155,7.5410583341145,51.6145949284837,44.0735365943692,-47.8440657614265,3.77052916705725,791.164283419334,1538.2550302443,1513.37131446239,1533.7543043404,1536.6746431753,1534.91488459261,1521.05816091626
156,-11.079531349329,57.6842809139634,68.7638122632925,-63.224046588628,-5.53976567466452,814.361686701915,1559.95956114054,1569.53711728778,1556.70999252694,1549.57118563037,1541.7348368224,1557.69099223876
157,-3.07538796396693,-8.85764907990233,-5.7822611159354,7.31995509791886,-1.53769398198347,749.276649887266,1504.33556089047,1512.04290882972,1505.40137348202,1501.64943541659,1506.11776193246,1501.4517341051
158,-9.16288848515251,-42.7506560857873,-33.5877676006348,38.1692118432111,-4.58144424257625,729.802448357572,1493.19266431578,1481.1217187423,1489.20808257593,1476.60481156042,1475.11530651568,1483.70112670949
159,12.1971345182101,-49.4739622117486,-61.6710967299587,55.5725294708536,6.09856725910504,707.854545114038,1477.38018695803,1478.80260054389,1476.87198692333,1482.33416787666,1465.7125799194,1476.48238868808
160,6.72521061418229,-24.2766044986201,-31.0018151128024,27.6392098057113,3.36260530709114,733.193953584792,1497.38972228239,1525.29631475793,1509.94719217709,1511.62558287312,1520.72347274705,1510.57379943621
161,-1.66133301708032,-120.973528711038,-119.312195693958,120.142862202498,-0.830666508540162,676.876503541076,1473.06520277611,1503.27265204978,1478.33106294181,1476.99060633575,1493.98130006948,1488.60167546122
162,-7.40839247524855,151.543341243931,158.951733719179,-155.247537481555,-3.70419623762427,908.924876159581,1658.89801859998,1644.15971120624,1644.12504529988,1655.36520504899,1645.21726958602,1641.27098839992
163,7.27983343991218,10.5232749624411,3.24344152252888,-6.88335824248497,3.63991671995609,754.158073859202,1505.07270619588,1512.07716632728,1505.49638692653,1503.32395893635,1511.7497304327,1516.49773421051
164,-4.9268114453298,148.736262803373,153.663074248703,-151.199668526038,-2.4634057226649,895.47985469269,1637.29663513668,1632.36532509531,1649.8352481483,1642.56623318041,1642.60468904732,1647.5297285991
165,-0.975660626718309,6.02201290929224,6.99767353601055,-6.5098432226514,-0.487830313359154,1378.86240400176,2750.72713446751,2759.61004409683,2752.31590988504,2739.0692803273,2747.80405234161,2764.85138931664
166,4.18505554454168,-123.534094531351,-127.719150075893,125.626622303622,2.09252777227084,2328.25270429201,4784.22455865992,4762.85876749802,4758.01090547719,4773.55148424537,4784.21039517346,4757.71457995017
167,-3.64261974563124,-128.065867511526,-124.423247765895,126.244557638711,-1.82130987281562,4042.62413544294,8209.67151865177,8225.42917482238,8223.02448210077,8217.00511147614,8227.39125027679,8220.15813256212
168,0.303649722191039,-237.062107102916,-237.365756825107,237.213931964012,0.15182486109552,6783.33429554818,13804.0343479215,13812.8567431172,13804.7268974539,13787.5277346477,13818.2590854828,13815.6185666232
169,-1.56417001824593,-246.102676383482,-244.538506365236,245.320591374359,-0.782085009122966,12026.7970346306,24298.1325756265,24291.6535975994,24272.0620021425,24263.5506445381,24301.5447469922,24314.3721060911
170,7.93901539570652,-454.4096232343,-462.348638630006,458.379130932153,3.96950769785326,28446.7149893714,57355.7786173729,57369.0084844161,57323.8673432039,57270.8254745496,57389.2254918042,57391.4089618987
171,-10.5034791308281,-286.375119721022,-275.871640590194,281.123380155608,-5.25173956541403,11848.2255553781,23972.3227513465,23981.2906801984,23956.4380124067,23945.1629459213,23970.3082151248,23984.5555042413
172,3.06186509426334,-169.382384905446,-172.444249999709,170.913317452578,1.53093254713167,6587.90955719468,13348.2633643891,13361.0392088201,13354.7233868091,13340.4503492581,13370.0072543935,13359.5570261041
173,-11.3897611689463,-191.118256004207,-179.728494835261,185.423375419734,-5.69488058447314,3727.34601601584,7634.42052686695,7643.97071022913,7629.20892930898,7627.76261707689,7651.9158172957,7640.23748133259
174,6.34401464290568,-92.5668764915026,-98.9108911344083,95.7388838129555,3.17200732145284,2065.68015237567,4230.27119588575,4227.47002807591,4217.58017875999,4221.16088269232,4231.0904241536,4226.79986215328
175,-18.8441281773557,-183.776003292645,-164.93187511529,174.353939203967,-9.42206408867787,955.485317285231,2075.90250968575,2052.58275179629,2057.26737611019,2044.99961146887,2066.78382540893,2070.92481971876
176,16.3580564777076,-80.2427493350406,-96.6008058127481,88.4217775738944,8.17902823885379,387.660996063423,871.922797939595,873.442348083045,872.214220791648,866.295118397189,874.829898681521,876.808554453368
177,6.30166915070731,-35.9165530546743,-42.2182222053816,39.067387630028,3.15083457535366,440.353511012072,922.925244229526,922.508400592254,902.817977946776,909.208455691289,915.681592371664,908.722035481682
178,6.73417577840155,68.8000229302561,62.0658471518545,-65.4329350410553,3.36708788920078,497.710575026664,933.355302901473,933.063901406771,935.791390621365,935.834430038638,943.96117337243,945.738403235329
179,-1.42461012949934,146.717365863995,148.141975993494,-147.429670928745,-0.712305064749671,564.54188408317,980.941792172845,990.441002195264,992.968212274194,992.895816312986,993.215772585943,995.331447561388
180,-8.97210479300702,514.616254907713,523.58835970072,-519.102307304216,-4.48605239650351,843.793907935775,1163.99945617083,1165.46125607091,1165.81473628193,1166.47324826551,1152.74813336195,1158.51734261247
181,4.9064228705538,126.540305226459,121.633882355905,-124.087093791182,2.4532114352769,529.538653541298,937.443424726691,946.542399531783,944.615934661386,940.722118299309,946.779559437564,931.184484442463
182,-2.26778021964128,146.824213798303,149.091994017945,-147.958103908124,-1.13389010982064,561.597168903347,974.102343788749,961.396402610175,979.534411577682,958.003344091965,963.781574787921,954.513255150523
183,-0.0997376396844629,-64.7089911063958,-64.6092534667114,64.6591222865536,-0.0498688198422315,390.699270380326,846.007794227364,850.730158789287,840.497316155204,849.912847084022,831.068292211072,850.51189807491
184,7.8357777352503,181.650689379196,173.814911643945,-177.732800511571,3.91788886762515,570.530819210777,967.246726777608,964.840504959458,961.767581553519,964.848496486607,954.571041303425,957.036075463344
185,4.43299127687351,-7.98886816739105,-12.4218594442646,10.2053638058278,2.21649563843675,424.144445200363,860.710749844991,854.635539647599,842.232632439816,845.483729644009,853.587074396171,849.733293013182
186,0.627812290738802,59.8114611875499,59.1836488968111,-59.4975550421805,0.313906145369401,470.378182118002,881.572715339193,898.641557798401,881.113133916922,895.553171323554,896.362151558191,905.684995490417
187,-3.80525366440997,-207.526050766581,-203.720797102171,205.623423934376,-1.90262683220499,264.639936850654,733.000670803478,736.025327215291,724.697758668102,743.213134320016,738.866439573554,739.348764874914
188,-15.0172871364339,-36.4088741610758,-21.3915870246419,28.9002305928589,-7.50864356821694,392.3035986412,805.998784307041,805.328869860794,805.559100539103,799.114101050742,816.482474577497,799.434395997581
189,-5.00617518936633,199.514008848055,204.520184037421,-202.017096442738,-2.50308759468317,578.243784998005,951.967385958589,934.022984154028,957.537107567361,930.138312235824,949.278579038684,935.856556248822
190,-0.919090551236877,-170.843171131914,-169.924080580677,170.383625856295,-0.459545275618439,279.752430107561,729.428940795799,738.600201601163,752.32678631696,755.513534239115,742.664691237209,740.523403131258
191,4.2952960296534,103.388855940837,99.0935599111835,-101.24120792601,2.1476480148267,486.723502160457,874.353444409731,849.306009059161,849.336622573494,863.080123211956,863.181898631941,866.239430035319
192,-2.30802155676065,-42.7209361678106,-40.4129146110499,41.5669253894303,-1.15401077838033,381.611908580642,803.636731772334,811.790527544043,809.956894625502,801.101977943297,808.473820975545,811.654457605386
193,4.34776615307783,-133.896361867344,-138.244128020422,136.070244943883,2.17388307653891,289.166176481274,716.576480982971,727.540882910689,728.724006896722,718.222351952601,705.398813339416,727.503907656064
194,-5.97365578747122,-127.20152739287,-121.227871605399,124.214699499134,-2.98682789373561,308.498135727044,738.224143059488,740.690207822598,745.645547151769,733.67943680723,731.954808712937,747.041217359045
195,5.48543785526999,-102.315572004503,-107.801009859773,105.058290932138,2.742718927635,315.176169332568,738.153348524909,735.143074272637,733.797209854005,730.410658794775,736.583910523943,750.022420034977
196,-15.4528607068642,-82.3954160091525,-66.9425553022884,74.6689856557205,-7.72643035343208,337.176771010258,741.296097322804,754.361977579509,754.349045259209,751.569419148,757.470505952282,756.901061156503
197,26.513645414554,54.965606573387,28.451961158833,-41.70878386611,13.256822707277,426.456691907195,824.461422655557,825.490943920304,819.797385313897,819.593216630281,825.157832737605,817.673148822563
198,12.9677798774792,-118.734290131863,-131.702070009342,125.218180070602,6.48388993873959,278.581636480099,688.865342969541,694.496990393149,688.756976068718,689.819043918047,698.615263211716,694.58443215373
199,2.27477489385637,-111.276045243168,-113.550820137025,112.413432690097,1.13738744692819,291.173504439765,695.897829016554,698.688999918872,697.239255385997,694.451186717226,706.798442945612,689.288738398056
200,-7.39864532326465,93.3455514137167,100.744196736981,-97.0448740753491,-3.69932266163232,451.389712718912,802.035228700843,810.38433925662,799.924352393136,811.456638094329,816.12646908249,813.609057467314
201,-11.9488451477664,-8.85607129341224,3.09277385435416,2.88164871952904,-5.9744225738832,370.205886798474,737.318999742594,733.202717177075,736.75203046453,735.021197432943,728.965096513974,726.946754785982
202,6.39624585752608,-87.5909472877684,-93.9871931452944,90.7890702165314,3.19812292876304,290.062071358421,674.111335862137,678.695854537305,670.475471898157,675.945564227877,660.821463617933,665.788405327738
203,-1.25747701144428,52.2812367766746,53.5387137881189,-52.9099752823968,-0.62873850572214,403.804233994917,754.069754201715,756.269163291756,769.03175817235,760.402568736492,757.06522921467,763.084823589597
204,-6.46013069455512,-64.6682819961279,-58.2081513015728,61.4382166488504,-3.23006534727756,298.879258003173,655.966667307919,652.886787177675,661.895423378563,663.244624401967,675.707405550143,665.794265626959
205,0.832999876147369,-91.0628991906415,-91.8958990667888,91.4793991287152,0.416499938073684,284.139800366247,660.175499799283,655.731631241593,646.998138111085,656.437865054002,653.493799412099,663.3870487682
206,-13.0189314854506,41.4945085078652,54.5134399933158,-48.0039742505905,-6.5094657427253,399.025269550955,743.537099108595,729.114984304702,744.71971255145,732.736161937501,735.91761893552,730.73397373347
207,5.20252336835256,-132.307205418794,-137.509728787147,134.90846710297,2.60126168417628,246.320140155003,630.150009097153,602.432307880867,600.559234919318,595.855129062693,633.30974616544,615.673233533715
208,0.563395360513823,120.122092948965,119.558697588451,-119.840395268708,0.281697680256912,432.391639673486,745.224581758521,751.859143811336,740.371030995098,749.60449427765,735.531906805089,743.297532478988
209,4.33710212714504,22.0586999701045,17.7215978429595,-19.890148906532,2.16855106357252,340.626600594565,663.531603346171,658.128103154188,647.562207335315,650.637342247559,653.317842595628,660.853779168334
210,-4.90223553890246,102.678584057023,107.580819595925,-105.129701826474,-2.45111776945123,400.250471748732,692.920123901538,694.287830206624,694.261992059153,692.216766425321,690.671456553129,685.861427726224
211,6.89924934963346,-0.365708506200463,-7.26495785583393,3.81533318101719,3.44962467481673,322.748155137408,652.761268130649,657.352062160469,642.958638711367,643.108093555755,654.754773506924,647.487057622231
212,7.56677518718061,-100.242721244082,-107.809496431262,104.026108837672,3.78338759359031,241.673580837014,591.15665810529,597.080959165498,616.226961385342,602.902262467833,602.232482109073,597.508809071587
213,-2.04423296279856,7.9893503121275,10.0335832749261,-9.01146679352678,-1.02211648139928,324.749050619168,639.46451796341,631.237579651672,632.354738004738,640.96139250751,625.210626384913,630.390393898066
214,3.62218680369551,168.961024176911,165.338837373216,-167.149930775064,1.81109340184776,421.490364169076,677.641890964936,681.298030020756,689.076501219068,682.553181982163,668.301624495944,690.12595736864
215,0.253517576842569,-59.7904186820379,-60.0439362588804,59.9171774704591,0.126758788421284,164.761249998308,389.566436255496,390.968649030401,375.633607127995,391.79576970209,397.292236763053,399.40552453039
216,4.814328758599,149.482106610667,144.667777852068,-147.074942231367,2.4071643792995,152.652089733907,160.636401615746,165.221564340027,167.502606385853,152.818983330129,168.436956489459,159.256163418031
217,-3.54704276408302,-68.0040231807216,-64.4569804166385,66.2305017986801,-1.77352138204151,-323.479333901414,-582.50168738619,-575.349462617596,-569.570498004556,-566.663375095435,-570.817864320241,-568.060443169496
218,-3.80145773050026,23.3376808889734,27.1391386194737,-25.2384097542235,-1.90072886525013,-717.79862048036,-1462.73637958019,-1465.64086997201,-1461.30173409096,-1470.37696498007,-1468.16272288345,-1469.32547175002
219,-7.38624912456726,-36.9250118402706,-29.5387627157033,33.231887277987,-3.69312456228363,-1665.7644063256,-3301.9900499355,-3297.65509652844,-3299.08166750727,-3306.29623837685,-3315.09166881334,-3322.79073922115
220,8.11070220000693,113.593651721865,105.482949521858,-109.538300621862,4.05535110000346,-4289.69194624142,-8684.8668420047,-8698.60902257217,-8703.52039454694,-8678.43092434751,-8705.19517497564,-8698.59303208557
221,-10.4562661172531,-64.3387136633683,-53.8824475461151,59.1105806047417,-5.22813305862655,-2185.63088802484,-4317.37932850356,-4333.68371719978,-4329.53384666998,-4311.31667227755,-4320.88662103703,-4334.72536838485
222,0.6648498805298,-33.8051107958308,-34.4699606763606,34.1375357360957,0.3324249402649,-1509.95379147834,-2985.43762228033,-2966.64751917994,-2984.03833146757,-2980.85708222503,-2980.77969241131,-2973.36377946349
223,-8.92781410034513,163.499320094968,172.427134195314,-167.963227145141,-4.46390705017257,-998.328693676303,-2169.08452154792,-2171.70540354264,-2164.17919297385,-2164.41306855943,-2166.27499313187,-2159.7012048476
224,11.797036100761,113.162337259331,101.36530115857,-107.263819208951,5.89851805038052,-821.493231975313,-1744.3517651092,-1747.41981123868,-1737.82059808122,-1738.29860528794,-1751.07561528659,-1741.07305900345
225,1.92606193872052,167.325104765681,165.399042826961,-166.362073796321,0.963030969360261,-644.823696882173,-1455.04643659131,-1454.21783882711,-1449.99189070088,-1465.76439669103,-1450.08967947031,-1460.92013022196
226,-1.78553557267878,-21.7173194809293,-19.9317839082505,20.8245516945899,-0.892767786339391,-713.178010479693,-1406.42423705113,-1419.08903446174,-1411.20855159071,-1396.38880243889,-1407.60362042236,-1400.47453521338
227,0.0921981143474113,230.017121756566,229.924923642218,-229.971022699392,0.0460990571737057,-544.455138894744,-1318.83520143171,-1296.43231451555,-1305.49536045731,-1296.31900342871,-1312.01767825073,-1320.30965777655
228,3.72263573904638,3.4433784087596,-0.279257330286782,-1.58206053923641,1.86131786952319,-711.7596234581,-1423.23998958591,-1416.0530199334,-1419.01335199107,-1429.40908381168,-1412.66430307124,-1420.82400209596
229,0.491053956415271,-299.794924047164,-300.28597800358,300.040451025372,0.245526978207636,-961.11461476548,-1621.94325152738,-1640.41990433633,-1641.8467898216,-1625.49189584842,-1631.89323831242,-1632.90636460664
230,-8.39005415345309,-679.930783154065,-671.540729000611,675.735756077338,-4.19502707672655,-1258.26777314319,-1844.99481728577,-1839.9886242557,-1831.78025084219,-1847.74058593294,-1847.26625463122,-1834.13173737624
231,10.7396199723007,-370.748561283399,-381.4881812557,376.118371269549,5.36980998615036,-1045.32331842228,-1709.15845558885,-1710.94933832274,-1699.2968099706,-1691.8929409385,-1702.63608236364,-1707.17203616744
232,-0.58911240688758,-280.604218607274,-280.015106200386,280.30966240383,-0.29455620344379,-989.651845199944,-1699.2885841995,-1678.07285252321,-1689.28710900864,-1690.73530779555,-1697.60603076089,-1677.44698223489
233,4.34457768665743,-43.0499655666354,-47.3945432532928,45.2222544099641,2.17228884332872,-813.422268655442,-1579.44999405759,-1573.44979222276,-1571.81068246756,-1579.6445347312,-1570.20029165407,-1591.8419319143
234,-14.6078763487749,-72.9972777883813,-58.3894014396064,65.6933396139939,-7.30393817438744,-842.34162006306,-1626.29383868651,-1628.58802766324,-1615.36018344431,-1627.33522986888,-1623.9775250993,-1613.15534307327
235,12.262013866537,152.171652415796,139.909638549259,-146.040645482528,6.13100693326851,-685.593730110617,-1511.09709877049,-1515.42827614924,-1513.74453672062,-1514.03774887524,-1514.81898833712,-1524.79014502472
236,5.83235578142921,151.600691893895,145.768336112465,-148.68451400318,2.91617789071461,-686.629774008572,-1519.02788412961,-1519.30662951912,-1522.54868007827,-1516.58764050272,-1526.15699957492,-1527.04559495722
237,-15.6856894427619,77.3513579240534,93.0370473668154,-85.1942026454344,-7.84284472138097,-735.41792108932,-1563.87288954546,-1575.34883938977,-1575.53095091495,-1576.67519389343,-1563.49383590487,-1569.37393118531
238,0.501641933107749,-118.652571184241,-119.154213117348,118.903392150794,0.250820966553874,-913.436412361654,-1707.71861160596,-1715.31514618944,-1704.81906158538,-1707.80391391335,-1699.93989056163,-1712.2701665801
239,6.48403121388401,-157.052408932941,-163.536440146825,160.294424539883,3.242015606942,-952.019546823241,-1740.50265349966,-1738.79260500256,-1755.00583705367,-1736.32486485114,-1746.59546686319,-1744.6364703904
240,2.32770002566394,-43.8806429352553,-46.2083429609193,45.0444929480873,1.16385001283197,-874.087613216776,-1701.96688347263,-1701.94041687399,-1713.54423894815,-1694.49266653706,-1710.72576296085,-1703.60969913428
241,-7.48930011907942,2.82793471103651,10.3172348301159,-6.57258477057621,-3.74465005953971,-833.969232812538,-1678.25570045519,-1676.57160304047,-1670.92560487924,-1676.15357275901,-1674.94313806228,-1675.2830900391
242,-2.1240483529109,123.365663697477,125.489712050388,-124.427687873933,-1.06202417645545,-761.583919818833,-1648.65755168805,-1645.34610684597,-1632.72455100183,-1643.69619463486,-1652.686890335,-1654.08293577435
243,-7.10647391169914,-20.7916239324259,-13.6851500207267,17.2383869765763,-3.55323695584957,-880.352854476208,-1747.02055893169,-1748.8801023085,-1732.73448487441,-1731.00058457939,-1757.35547138445,-1742.48768941726
244,3.95196690512239,181.530068968219,177.578102063097,-179.554085515658,1.9759834525612,-744.71350425556,-1667.00511057422,-1682.02937862196,-1672.29753185165,-1669.96061939211,-1677.1669438174,-1669.49368956746
245,-5.22164122774848,203.861756489321,209.08339771707,-206.472577103195,-2.61082061387424,-707.286284652801,-1623.65596702267,-1630.38297107932,-1628.07012855168,-1629.00125147801,-1638.68308140378,-1633.48012742747
246,10.977160461538,74.8256436783413,63.8484832168033,-69.3370634475723,5.488580230769,-831.147978288354,-1726.14443979351,-1725.48359668397,-1730.89387296673,-1731.46824111667,-1734.36967688848,-1730.8547512815
247,0.393649943172932,153.310794400924,152.917144457751,-153.113969429338,0.196824971586466,-771.883609096083,-1696.68436264992,-1702.69902724979,-1700.20839160695,-1709.21581966913,-1692.82982694646,-1687.83676047568
248,9.77698366873665,-142.846779824788,-152.623763493524,147.735271659156,4.88849183436832,-1032.49045119024,-1912.35713888696,-1885.41089262694,-1904.71034386719,-1896.12599059532,-1911.08883230062,-1907.54296377074
249,2.99129019863904,35.9842933115142,32.9930031128752,-34.4886482121947,1.49564509931952,-898.114200104363,-1829.2214033216,-1807.67436348053,-1824.23878055572,-1824.18127876002,-1828.66377298324,-1832.71288261274
250,-11.9627259580593,-167.063688370486,-155.100962412427,161.082325391457,-5.98136297902965,-1055.06998399258,-1955.03900557273,-1953.45827068458,-1948.44522784394,-1934.60193430851,-1935.87044377576,-1967.35131985217
251,-1.41694450349314,107.633300357003,109.050244860497,-108.34177260875,-0.708472251746571,-840.02551123836,-1789.10126733722,-1792.31670660994,-1783.11716136819,-1777.93813289082,-1773.90442520354,-1771.71943440317
252,-8.49982248267042,51.8841034655634,60.3839259482338,-56.1340147068986,-4.24991124133521,-896.723261775624,-1853.83044949948,-1869.8480893962,-1870.19351039582,-1863.48915224848,-1866.85327431856,-1852.52778995951
253,6.66279161392595,28.2090407140495,21.5462491001235,-24.8776449070865,3.33139580696297,-947.025729001747,-1915.59770710362,-1942.16117780097,-1918.74470226822,-1915.06908558344,-1920.0063694611,-1926.0669852125
254,-1.55443910273607,142.606611821626,144.161050924362,-143.383831372994,-0.777219551368034,-865.383428937785,-1874.92790879993,-1886.53539909053,-1873.96711855926,-1889.67245631386,-1882.36373114222,-1884.66559812173
255,5.60668017133139,58.4328804451798,52.8262002738484,-55.6295403595141,2.8033400856657,-919.703821021423,-1892.23384231669,-1897.86196631115,-1897.82770913999,-1884.36879898957,-1899.03350230621,-1882.54691932493
256,4.6627415488183,-39.0557622765773,-43.7185038253956,41.3871330509864,2.33137077440915,-1011.88661015003,-1980.05471647467,-1977.00064330353,-1969.67923861998,-1964.83878396993,-1988.83730525029,-1980.88586042222
257,3.72478669055272,5.40743160978309,1.68264491923037,-3.54503826450673,1.86239334527636,-966.407209378318,-1934.49706367587,-1922.22365306967,-1930.80624076849,-1947.67930498355,-1948.58745617265,-1943.75938554417
258,-10.9313093492237,43.4767207567638,54.4080301059876,-48.9423754313757,-5.46565467461187,-958.310188578602,-1971.02840726319,-1979.49440048146,-1966.35527020801,-1976.55013516356,-1969.50788652455,-1980.18616248056
259,-8.38771568250377,73.7931113336817,82.1808270161855,-77.9869691749336,-4.19385784125188,-942.124021056094,-1966.42886912837,-1958.64461335161,-1961.86524164135,-1968.07526270888,-1970.20271228865,-1961.52542939372
260,-4.94518137443811,-160.199168521562,-155.253987147124,157.726577834343,-2.47259068721905,-1109.5340064303,-2063.81402571348,-2062.91779394328,-2081.88451517088,-2077.7521669385,-2063.62499630576,-2063.7407075238
261,3.54960035267868,-85.7968925887253,-89.346492941404,87.5716927650647,1.77480017633934,-1085.41635762784,-2081.48622231427,-2055.56324424184,-2062.54260362417,-2057.53971346811,-2082.0023711985,-2077.5074265014
262,-3.6781738086429,-5.75007829454262,-2.07190448589972,3.91099139022117,-1.83908690432145,-1806.289198628,-3610.5064927701,-3610.66070060909,-3593.71306157659,-3594.92513085902,-3597.31459262362,-3606.74150577822
263,3.27168888831511,60.153433006315,56.8817441179999,-58.5175885621575,1.63584444415756,-3098.95154883833,-6254.78484179467,-6248.41898216057,-6252.28659900141,-6250.31141906694,-6251.83580495234,-6264.49074159365
264,6.94362799654482,1.83845539405593,-5.10517260248889,1.63335860421648,3.47181399827241,-5344.19262343559,-10683.2800742687,-10688.9120902136,-10665.6075860204,-10661.7454557998,-10689.9835925322,-10689.2272904404
265,1.74256536635221,254.962195544213,253.21963017786,-254.090912861036,0.871282683176105,-8774.32038542675,-17801.8604010314,-17795.7618642938,-17790.5957968759,-17768.0149222966,-17810.8457795986,-17784.7753451365
266,-8.68747914704727,433.116043506481,441.803522653528,-437.459783080005,-4.34373957352364,-15342.7882398605,-31127.3800023744,-31147.7207501234,-31111.9264395599,-31096.5085983546,-31153.4306507755,-31141.9320341062
267,1.21756519391784,952.39835116532,951.180785971403,-951.789568568362,0.608782596958918,-36205.7246363246,-73362.6300586205,-73384.760859613,-73325.0867693334,-73275.4541833975,-73412.4953821782,-73404.7765960674
268,-10.2662059111753,442.304743132874,452.570949044049,-447.437846088462,-5.13310295558767,-14943.9375627178,-30340.4460744796,-30369.6256109644,-30329.1883242508,-30308.1595097058,-30367.7405411213,-30372.5421150588
269,5.79213871670072,171.901117007452,166.108978290751,-169.005047649101,2.89606935835036,-8263.5764987974,-16693.2619758855,-16720.6693085202,-16685.4538666941,-16679.4485780782,-16709.9582601256,-16716.3780709773
270,7.11823373043444,22.1086732982367,14.9904395678022,-18.5495564330195,3.55911686521722,-4622.61158423852,-9260.21360804484,-9268.94293680464,-9271.62654411269,-9254.580647706,-9274.34239963104,-9265.17830858263
271,4.30695850928896,131.198730163014,126.891771653725,-129.04525090837,2.15347925464448,-2274.45551870245,-4675.80280905863,-4670.53277909275,-4676.59094354807,-4662.29510752938,-4671.26785820854,-4678.7160772006
272,1.68361994455336,87.1352604901476,85.4516405455943,-86.293450517871,0.841809972276678,-939.788040721221,-1965.02772198804,-1956.40816636896,-1962.08349525096,-1952.1333621823,-1960.4412176832,-1960.47220821897
273,-0.568909804249415,26.8167288489058,27.3856386531552,-27.1011837510305,-0.284454902124708,-204.588574593363,-436.562787839881,-428.906537249277,-425.582768524386,-427.927670466306,-423.584506331419,-439.180766551581
274,-0.875691372290021,-8.55454965480021,-7.67885828251019,8.1167039686552,-0.43784568614501,-210.300465263397,-412.922072244284,-406.923963748442,-405.802227629727,-420.392003569432,-414.67078583283,-409.658433493227
275,-4.42010883745388,-49.4928878491919,-45.072779011738,47.282833430465,-2.21005441872694,-232.271637484184,-419.47049595663,-423.300097493164,-411.488533115858,-425.376205400127,-427.123200013273,-425.145017684874
276,-6.07292487993254,165.807885595103,171.880810475035,-168.844348035069,-3.03646243996627,-49.4194400578272,-270.719690590689,-270.792928748881,-265.983948522073,-252.247899665497,-266.410608138074,-259.459209114459
277,2.76695417077281,93.5380882691534,90.7711340983806,-92.154611183767,1.3834770853864,-95.0134444305149,-280.79802295941,-282.550520904129,-278.770520151535,-279.162589739717,-276.299723141565,-271.31336571282
278,-7.09093525525532,59.4965650579252,66.5875003131805,-63.0420326855528,-3.54546762762766,-104.363346841492,-275.314193996164,-258.509780349617,-272.860013248835,-257.180032007745,-271.707872108673,-267.713190024835
279,10.3801584219036,145.376421596709,134.996263174806,-140.186342385758,5.19007921095181,-37.2821520217549,-209.560567218316,-217.826828863093,-202.989087302849,-207.786264506867,-220.427495160926,-210.330489822751
280,2.04980055129272,542.200676620821,540.150876069529,-541.175776345175,1.02490027564636,301.705865772703,63.2608554758772,39.0845228235121,53.4889764386171,39.3462850300712,44.3512881376373,39.2565667531453
281,1.51962126872968,77.2097434938187,75.690122225089,-76.4499328594538,0.75981063436484,-64.8501999545406,-205.39052213417,-204.399935208115,-192.881465296377,-198.364541594085,-202.135084638809,-216.878408465971
282,5.62434950802708,84.9661442990764,79.3417947910493,-82.1539695450629,2.81217475401354,-64.4153672741522,-208.172529339354,-194.332936972933,-209.09363053678,-209.060159437766,-201.578703995794,-212.784977266885
283,1.68304706265917,-70.227745817072,-71.9107928797312,71.0692693484016,0.841523531329585,-159.594555214906,-247.278317550081,-238.961965173949,-233.04114977218,-230.123528134805,-219.331317787291,-233.08047397164
284,-3.97039212824893,-61.7499224764179,-57.7795303481689,59.7647264122934,-1.98519606412447,-93.7816210142046,-129.78371168024,-124.291928750143,-124.222501214914,-122.12895946257,-124.10046114077,-125.059396698722
285,4.73320914164651,151.693128487386,146.95991934574,-149.326523916563,2.36660457082326,97.7695834332844,48.5792475208291,60.0669389776303,33.8224548524304,45.6748629803478,39.4124102002243,58.3969768578827
286,10.6209813495225,-42.0364604190108,-52.6574417685333,47.3469510937721,5.31049067476124,-24.1026674531022,4.45210686232895,-0.932743614423089,-12.6609426329087,4.60348573466763,-1.5872232435795,8.90573581558419
287,-9.72091404459206,297.936359862302,307.657273906894,-302.796816884598,-4.86045702229603,261.777702288513,215.898130670132,203.839055817458,211.113273482479,200.287096926157,203.446655950131,204.100552068645
288,-4.37132522903266,33.3697694893053,37.741094718338,-35.5554321038217,-2.18566261451633,52.0306074250257,66.3201201317133,62.5051436695794,70.8605732115975,73.207947713352,61.0611648858758,75.1037875011389
289,-1.04207636346109,-214.359884711215,-213.317808347754,213.838846529485,-0.521038181730546,-140.406839579504,-67.4958708112536,-66.2774943044642,-70.9536666434142,-53.4622702395427,-59.3951873629994,-64.0377315724327
290,3.29757407036959,-151.255116450164,-154.552690520533,152.903903485349,1.6487870351848,-88.3555998007068,-22.1585090808803,-31.7160479622544,-18.3459324109426,-25.124406342482,-27.1330003182811,-15.2403727769852
291,-22.5851071500219,-86.6329031139321,-64.0477959639102,75.3403495389211,-11.292553575011,16.0652291568258,96.1782542775618,73.0920452686842,87.501675360254,73.6374434048776,77.8519650300732,83.4063925057999
292,-2.48595324068447,-107.414329607767,-104.928376367083,106.171352987425,-1.24297662034223,-26.8907812527032,51.1468138616765,44.0591739234515,55.1132708058285,47.5126416660787,54.9968803552911,38.4763478897512
293,1.47855883452576,-229.21605902625,-230.694617860776,229.955338443513,0.739279417262878,-105.013539020802,20.6675398191728,30.9112523527292,15.0896177921095,13.4882059236406,18.8614035650971,16.2411144814978
294,-5.81935679272283,-81.3181071845756,-75.4987503918528,78.4084287882142,-2.90967839636141,35.2155373597197,145.929825111292,151.545588392648,148.336427191796,159.765893983567,142.655179576133,154.133341620793
295,-1.70783352211583,48.015814834187,49.7236483563029,-48.869731595245,-0.853916761057917,148.286428461142,246.849208565982,249.798935619358,236.176682718156,222.760951480828,253.600414858374,237.551558716106
296,-1.01589627817157,-39.8089097098564,-38.7930134316848,39.3009615707706,-0.507948139085784,84.3984717137937,207.589956859272,205.708368228428,212.051770823105,225.883122749132,216.158559540403,213.240544889995
297,-9.69785103769391,167.258939426363,176.956790464057,-172.10786494521,-4.84892551884695,271.154543376804,365.352296289551,371.95164996275,361.379176735791,350.937657865696,365.924370749795,366.052548132517
298,9.24465955793858,-139.539830149821,-148.784489707759,144.16215992879,4.62232977896929,35.2678490075341,219.320187722828,230.882763376285,223.496020635212,230.888099227333,227.638621921302,219.232784671476
299,3.8728202797065,-9.35591252375161,-13.2287328034581,11.2923226636049,1.93641013985325,141.264634528343,295.758001860144,299.344085470133,302.81688571698,320.429469810741,306.507400925213,304.19670802998
300,5.46525555182598,12.1487930878357,6.68353753600968,-9.41616531192267,2.73262777591299,173.177562931422,339.671588326833,340.617959493102,345.6402855833,337.136604862171,341.716880311404,350.007261597493
301,-4.18154990486801,-1.30952847830486,2.87202142656315,-0.781246474129148,-2.090774952434,181.188632450416,359.505243474268,344.831617284246,359.780060389952,350.067940498237,358.285482432781,358.583250765398
302,-2.83420963509707,-66.9996975914983,-64.1654879564012,65.5825927739497,-1.41710481754853,138.162781133768,340.491050223936,357.002477377217,352.274541470571,339.374354200612,344.050237560878,354.382850278256
303,12.6955517049937,-8.6885871408158,-21.3841388458095,15.0363629933127,6.34777585249685,213.428144297985,448.240427441779,448.962957879063,451.993246782018,439.602824546484,435.584221692436,443.396000297507
304,2.1105854131165,-25.5477933229122,-27.6583787360287,26.6030860294704,1.05529270655825,199.541859558391,426.74209785281,445.073181383021,430.492379455158,432.820832954574,435.826015962899,434.522104604053
305,-3.03257435897831,-139.908645979158,-136.87607162018,138.392358799669,-1.51628717948915,140.546137763493,417.968347147165,407.628339412942,406.5079417612,410.425704264955,410.484049673338,421.387549429317
306,3.36151610556408,-51.9844706557051,-55.3459867612692,53.6652287084871,1.68075805278204,224.337396639865,504.020780040999,506.137256708287,510.915521395771,509.091434569302,499.682249972568,493.745036810404
307,7.10765486533637,91.7558481324231,84.6481932670868,-88.2020206997549,3.55382743266819,332.157632301649,579.667071336211,587.378153670987,587.197681942955,579.889016760862,583.600281993829,582.760509020358
308,3.7733305330039,277.458123875986,273.684793342982,-275.571458609484,1.88666526650195,1102.96022159209,1932.2356498412,1924.29244811207,1939.02895590081,1937.251218802,1933.31304614953,1928.15970667987
309,11.9304418738175,11.7170172737387,-0.213424600078724,-5.75179633683001,5.96522093690874,1967.87181816989,3935.95706093987,3940.92841304062,3932.12159116357,3931.12295514304,3941.57151018843,3937.11097722588
310,1.33962959301425,-212.69621013492,-214.035839727934,213.366024931427,0.669814796507126,3586.29409668098,7386.6240330899,7386.42385607309,7377.812810804,7360.32567719452,7394.14197461022,7395.25573322957
311,-16.1024590393645,-180.721921626566,-164.619462587201,172.670692106884,-8.05122951968224,6541.24779114085,13247.1150448689,13273.5995304613,13239.7708970645,13240.2239467743,13285.1434094614,13259.5059883577
312,-1.29450674005784,-358.07486916866,-356.780362428603,357.427615798631,-0.64725337002892,11830.8069496877,24018.3942618041,24013.763699899,23983.7942662156,23977.4784394589,24021.567988945,24015.8297402638
313,5.23138608431327,-593.506878978456,-598.73826506277,596.122572020613,2.61569304215664,28576.9101240091,57752.5585130809,57772.9842606502,57716.1432885651,57686.7394102025,57787.6904878948,57780.8202483141
314,-6.18908491614275,-238.68572102848,-232.496636112337,235.591178570408,-3.09454245807137,12044.5295873793,24321.555810871,24335.5920925144,24299.57222445,24296.3900317507,24335.6566764924,24339.4321973125
315,7.70540294118109,-117.55888443967,-125.264287380851,121.41158591026,3.85270147059055,6866.42328251804,13858.1108524169,13856.710444082,13845.6789232585,13829.8532166563,13858.5439345497,13874.8244686406
316,-11.0742740423593,-35.9149651375483,-24.840691095189,30.3778281163686,-5.53713702117966,4090.45641907184,8205.75352923886,8205.44399119311,8199.45128468578,8216.57617931307,8208.43165952491,8199.39406177046
317,11.2562842011102,36.5858122511709,25.3295280500606,-30.9576701506157,5.62814210055512,2411.20372624508,4797.07792444009,4792.52747332974,4790.50168231723,4788.67244389301,4792.67593715875,4794.39186436011
318,2.07644830620848,-74.2193067021144,-76.2957550083229,75.2575308552186,1.03822415310424,1290.7442098022,2657.78417461272,2656.46238619208,2662.87362377459,2651.18647362388,2670.05048961291,2653.07634291769
319,-5.36814699805109,22.1511732371582,27.5193202352093,-24.8352467361838,-2.68407349902554,754.349291410414,1481.17926258562,1463.42964692519,1473.94243868778,1481.24407366087,1482.57720417238,1477.42379244574
320,-2.62654715927783,79.4112870701938,82.0378342294716,-80.7245606498327,-1.31327357963892,799.515830505406,1516.99382678134,1521.94813529358,1526.38442632879,1516.3010534847,1503.95220884631,1532.13008934751
321,5.9045978258946,-2.26475596727687,-8.16935379317147,5.21705488022417,2.9522989129473,728.281719725361,1464.73279324389,1439.76360893491,1442.18077754285,1448.16667599941,1456.20690164252,1442.70112110063
322,-6.47423550038366,-29.1402533547953,-22.6660178544116,25.9031356046034,-3.23711775019183,711.147483795532,1444.96098544548,1439.07634492448,1437.64540088188,1435.77598580695,1439.87875623483,1440.99194278824
323,10.4696382998663,11.3305360371887,0.860897737322375,-6.09571688725555,5.23481914993317,730.58544923953,1460.31000074174,1474.63297161524,1464.06566232545,1452.31065957074,1462.48197089866,1482.61466202894
324,-9.03914154172526,-49.3993082852394,-40.3601667435141,44.8797375143768,-4.51957077086263,673.83282138333,1388.02580951017,1407.1650047251,1410.00921241997,1392.69141594274,1404.61741033211,1400.49436198908
325,-5.81179108604556,-152.218135378353,-146.406344292307,149.31223983533,-2.90589554302278,598.163966088207,1342.73427646872,1352.7867267174,1350.06882954197,1343.56667596183,1360.1210666894,1355.897683202
326,-1.24498932645656,3.00179987330921,4.24678919976577,-3.62429453653749,-0.622494663228281,701.320609656279,1398.39443011279,1381.83254080109,1376.12736287288,1388.49373613042,1403.83227949403,1395.59608271497
327,13.0611140412802,-72.7736343280994,-85.8347483693797,79.3041913487396,6.53055702064012,646.541273244831,1378.91729485904,1370.99246644709,1377.72462181561,1380.94178312377,1369.82015587488,1375.38267310517
328,-6.9567415076599,-141.406390719378,-134.449649211718,137.928019965548,-3.47837075382995,607.716039702689,1349.8817286171,1351.91554098277,1356.29237088026,1351.51410859349,1349.47386980822,1335.03430876861
329,-2.50236796692479,-263.061817519163,-260.559449552238,261.810633535701,-1.2511839834624,509.074101805585,1278.70765316341,1277.03934839123,1272.68267070266,1274.60193739817,1305.23246376237,1278.21170218417
330,5.03966408377164,-506.127207665151,-511.166871748923,508.647039707037,2.51983204188582,315.502055680787,1142.1709831105,1158.13788860937,1161.16472177065,1155.02802962816,1147.52555476484,1154.53760731965
331,0.409881470055552,-122.552520206431,-122.962401676486,122.757460941459,0.204940735027776,632.412099469875,1387.78660061624,1384.9627666343,1387.43036401755,1389.72901370967,1396.58701747732,1387.69439957407
332,-7.35844585730229,-216.121071502101,-208.762625644798,212.44184857345,-3.67922292865114,555.975100423806,1320.71282649241,1326.47942967655,1305.88168365473,1319.68777210193,1315.9610421196,1318.91349573442
333,7.13624017909751,-0.59315673718811,-7.72939691628562,4.16127682673687,3.56812008954876,695.785642533781,1399.30068198385,1412.80001070641,1411.56505365597,1405.47321170458,1398.83520910083,1408.12508275211
334,8.04072414740222,7.32420055693365,-0.716523590468569,-3.30383848323254,4.02036207370111,698.744549173978,1398.20562193842,1404.90731925928,1403.36876511751,1405.8543528679,1403.43237400035,1413.22200042839
335,6.95848604125786,98.5757947392995,91.6173086980416,-95.0965517186705,3.47924302062893,786.656764326457,1481.69621995487,1455.97897719833,1477.83054019828,1463.98962542851,1469.1936588852,1469.07281449824
336,-11.4978950615041,-89.3071073017782,-77.8092122402741,83.5581597710261,-5.74894753075205,652.360679901598,1382.53057204347,1365.25677799771,1359.61786135859,1358.33563907014,1371.41456126916,1367.32155576814
337,-4.07029484788654,-107.776131914579,-103.705837066693,105.740984490636,-2.03514742394327,620.386320509308,1344.47847808531,1340.9276862925,1340.37126032601,1325.99961438583,1334.85316100894,1343.11836374798
338,1.69777168071596,59.6842323937453,57.9864607130294,-58.8353465533874,0.84888584035798,730.496298535625,1403.00613635822,1405.61830275931,1403.73786421679,1401.35639774558,1402.463001297,1390.54712770431
339,-16.0872866399295,-74.1163068781025,-58.029020238173,66.0726635581377,-8.04364331996476,649.616525335252,1357.26207090868,1357.69516740198,1341.6088031441,1357.23806393216,1346.41854467179,1348.17233102367
340,-1.71463135717204,-8.28994040301768,-6.57530904584564,7.43262472443166,-0.857315678586019,681.818580226958,1370.21246949976,1359.88297668408,1362.63752409106,1357.29775547123,1388.94014783151,1373.25280176336
341,11.6559336282662,75.2504566022835,63.5945229740173,-69.4224897881504,5.82796681413311,748.923150669536,1434.25177836505,1452.07934651675,1436.80046149675,1451.73357374224,1445.97479689633,1444.37231233309
342,11.8356852872821,-117.70162942991,-129.537314717192,123.619472073551,5.91784264364105,604.648106851193,1338.83352841958,1321.96534851607,1326.18035456995,1329.41317403971,1329.47536109132,1322.06440759861
343,-5.28925938290195,-89.0131588348304,-83.7238994519284,86.3685291433794,-2.64462969145097,617.593103589636,1318.9101066312,1326.99532349649,1323.64170850886,1322.0745434399,1318.28631821854,1328.46360791783
344,-11.2639581142867,-71.6664643310942,-60.4025062168075,66.0344852739509,-5.63197905714333,634.18966703245,1328.78184028171,1331.29423222301,1321.87677576812,1326.338132665,1314.77669520001,1316.05537944107
345,15.4708396676288,72.8701561457128,57.3993164780841,-65.1347363118985,7.73541983381438,715.64095156001,1373.88258664194,1389.84233620809,1401.29135534761,1378.23725737096,1389.3011017706,1394.76498668527
346,-4.17475538171129,116.480320213828,120.65507559554,-118.567697904684,-2.08737769085565,751.788295653649,1382.92151571176,1377.9397725024,1372.30942668559,1375.35583264582,1377.92076501888,1395.76596294061
347,-10.6743898737186,-38.403926953295,-27.7295370795764,33.0667320164357,-5.33719493685931,643.007051216016,1313.74363951161,1338.05493860468,1333.70060362248,1329.23873917133,1328.65498169823,1329.67014268957
348,-0.159076670242939,-11.2425524088612,-11.0834757386183,11.1630140737398,-0.0795383351214696,664.644922463776,1340.37332066617,1327.42518134115,1327.66737284954,1334.67530728359,1336.77561672599,1329.26601005567
349,7.69221099381684,40.7288289713033,33.0366179774865,-36.8827234743949,3.84610549690842,692.125434519898,1351.21425106231,1347.39093365771,1347.85499552102,1350.31646026004,1357.10739514994,1341.97085860354
350,4.77021325298119,-45.7296882932424,-50.4999015462236,48.114794919733,2.3851066264906,624.140918746969,1298.78173904016,1291.23340229556,0,0,0,0
351,-12.4332713463227,-156.933728597738,-144.500457251415,150.717092924577,-6.21663567316136,-72.2502286257077,0,0,0,0,0,0
352,-3.12108751546475,-77.8495450578339,-74.7284575423691,76.2890013001015,-1.56054375773238,-37.3642287711846,0,0,0,0,0,0
353,-10.0575426422292,38.4976007841178,48.5551434263471,-43.5263721052324,-5.02877132111462,24.2775717131735,0,0,0,0,0,0
354,-4.85667205913342,199.318653151946,204.175325211079,-201.746989181513,-2.42833602956671,102.08766260554,0,0,0,0,0,0
355,2.11549492209451,-72.9818988490442,-75.0973937711387,74.0396463100915,1.05774746104726,-37.5486968855694,0,0,0,0,0,0
356,3.68076117828605,-48.056959816342,-51.737720994628,49.897340405485,1.84038058914302,-25.868860497314,0,0,0,0,0,0
357,5.5031556453323,-49.3175288260682,-54.8206844714005,52.0691066487343,2.75157782266615,-27.4103422357002,0,0,0,0,0,0
358,3.58466439932818,-74.7800156677258,-78.364680067054,76.5723478673899,1.79233219966409,-39.182340033527,0,0,0,0,0,0
359,1.02129898045678,-143.070311226067,-144.091610206524,143.580960716296,0.510649490228388,-72.045805103262,0,0,0,0,0,0
360,8.98826105057378,-338.715225325606,-347.70348637618,343.209355850893,4.49413052528689,-173.85174318809,0,0,0,0,0,0
361,6.20745393380639,-168.098023971892,-174.305477905698,171.201750938795,3.1037269669032,-87.1527389528492,0,0,0,0,0,0
362,-3.24262641233508,-77.2096129370038,-73.9669865246688,75.5882997308363,-1.62131320616754,-36.9834932623344,0,0,0,0,0,0
363,4.55471127742203,-75.2023129762674,-79.7570242536895,77.4796686149784,2.27735563871101,-39.8785121268447,0,0,0,0,0,0
364,-6.54573144222377,-28.3655025639746,-21.8197711217508,25.0926368428627,-3.27286572111188,-10.9098855608754,0,0,0,0,0,0
365,-3.27524390711915,-12.0179947940633,-8.74275088694412,10.3803728405037,-1.63762195355957,-4.37137544347206,0,0,0,0,0,0
366,5.47067350885482,104.937432000384,99.4667584915296,-102.202095245957,2.73533675442741,49.7333792457648,0,0,0,0,0,0
367,12.3168707987352,114.871153751825,102.55428295309,-108.712718352457,6.15843539936759,51.2771414765448,0,0,0,0,0,0
368,-0.395919336733641,132.78737378458,133.183293121314,-132.985333452947,-0.197959668366821,66.591646560657,0,0,0,0,0,0
369,2.54817307274789,85.0444227653788,82.496249692631,-83.7703362290049,1.27408653637394,41.2481248463155,0,0,0,0,0,0
370,-5.42864283802919,45.0724548679718,50.501097706001,-47.7867762869864,-2.7143214190146,25.2505488530005,0,0,0,0,0,0
371,4.00541098188842,35.0418797620805,31.0364687801921,-33.0391742711363,2.00270549094421,15.518234390096,0,0,0,0,0,0
372,-9.18858542677481,162.370113643439,171.558699070214,-166.964406356827,-4.5942927133874,85.779349535107,0,0,0,0,0,0
373,4.43975374705042,19.2536182422773,14.8138644952269,-17.0337413687521,2.21987687352521,7.40693224761344,0,0,0,0,0,0
374,-9.15669340727618,-128.088723020366,-118.93202961309,123.510376316728,-4.57834670363809,-59.466014806545,0,0,0,0,0,0
375,2.06780316011282,-137.204743849928,-139.272547010041,138.238645429985,1.03390158005641,-69.6362735050207,0,0,0,0,0,0
376,-6.79750862371293,-58.612836714572,-51.8153280908591,55.2140824027156,-3.39875431185646,-25.9076640454296,0,0,0,0,0,0
377,-14.08624100624,-61.2854040477541,-47.1991630415141,54.2422835446341,-7.04312050312001,-23.5995815207571,0,0,0,0,0,0
378,5.3640860094165,183.593775851914,178.229689842497,-180.911732847206,2.68204300470825,89.1148449212487,0,0,0,0,0,0
379,9.16611956281122,159.484244859486,150.318125296675,-154.901185078081,4.58305978140561,75.1590626483376,0,0,0,0,0,0
380,-0.822792139602825,339.509574116382,340.332366255985,-339.920970186184,-0.411396069801413,170.166183127993,0,0,0,0,0,0
381,-10.3598782370682,309.172280338709,319.532158575777,-314.352219457243,-5.17993911853409,159.766079287889,0,0,0,0,0,0
382,17.2637965198082,11.7036179610877,-5.56017855872051,-3.07171970118361,8.63189825990412,-2.78008927936025,0,0,0,0,0,0
383,2.83527581908857,99.6643928475678,96.8291170284792,-98.2467549380235,1.41763790954428,48.4145585142396,0,0,0,0,0,0
384,5.67887738253921,19.2414331527543,13.5625557702151,-16.4019944614847,2.83943869126961,6.78127788510756,0,0,0,0,0,0
385,-5.84690473531373,14.7662041641306,20.6131088994443,-17.6896565317875,-2.92345236765686,10.3065544497222,0,0,0,0,0,0
386,3.90934125616332,-1.63940225658007,-5.54874351274339,3.59407288466173,1.95467062808166,-2.77437175637169,0,0,0,0,0,0
387,-5.09351051034173,-97.4930845052586,-92.3995739949169,94.9463292500877,-2.54675525517087,-46.1997869974584,0,0,0,0,0,0
388,-7.83505313692149,12.8335556408274,20.6686087777489,-16.7510822092881,-3.91752656846074,10.3343043888744,0,0,0,0,0,0
389,0.244612697482808,43.3486841648992,43.1040714674164,-43.2263778161578,0.122306348741404,21.5520357337082,0,0,0,0,0,0
390,-4.29791497980477,-91.1610818754707,-86.8631668956659,89.0121243855683,-2.14895748990239,-43.431583447833,0,0,0,0,0,0
391,-6.30295648460742,12.4912269636407,18.7941834482481,-15.6427052059444,-3.15147824230371,9.39709172412404,0,0,0,0,0,0
392,6.94160390747129,67.393955476,60.4523515685287,-63.9231535222643,3.47080195373564,30.2261757842643,0,0,0,0,0,0
393,2.73090333337314,28.4618889296835,25.7309855963103,-27.0964372629969,1.36545166668657,12.8654927981552,0,0,0,0,0,0
394,5.13735204315162,-100.683869378408,-105.82122142156,103.252545399984,2.56867602157581,-52.91061071078,0,0,0,0,0,0
395,-2.75955257200985,26.9718252025195,29.7313777745294,-28.3516014885245,-1.37977628600493,14.8656888872647,0,0,0,0,0,0
396,9.83829882199643,-87.5148621507979,-97.3531609727943,92.4340115617961,4.91914941099822,-48.6765804863971,0,0,0,0,0,0
397,-4.36052647879114,35.9491787682637,40.3097052470548,-38.1294420076592,-2.18026323939557,20.1548526235274,0,0,0,0,0,0
398,1.66993757255841,-143.726537823764,-145.396475396323,144.561506610044,0.834968786279205,-72.6982376981614,0,0,0,0,0,0
399,0.43972580722766,-76.027722515777,-76.4674483230046,76.2475854193908,0.21986290361383,-38.2337241615023,0,0,0,0,0,0
400,4.01608635732555,-33.6146090065304,-37.6306953638559,35.6226521851931,2.00804317866277,-18.815347681928,0,0,0,0,0,0
401,6.0189545970934,108.293171050726,102.274216453632,-105.283693752179,3.0094772985467,51.1371082268161,0,0,0,0,0,0
402,9.22973755665589,82.9257414426247,73.6960038859688,-78.3108726642968,4.61486877832795,36.8480019429844,0,0,0,0,0,0
403,-9.18362059842912,119.171222154342,128.354842752771,-123.763032453557,-4.59181029921456,64.1774213763856,0,0,0,0,0,0
404,-2.93478075100575,368.196823654289,371.131604405295,-369.664214029792,-1.46739037550287,185.565802202647,0,0,0,0,0,0
405,6.10597406714805,757.818370983645,751.712396916497,-754.765383950071,3.05298703357403,375.856198458248,0,0,0,0,0,0
406,-20.3730891062587,381.472867990349,401.845957096608,-391.659412543479,-10.1865445531294,200.922978548304,0,0,0,0,0,0
407,-6.67626877743169,244.994976371498,251.671245148929,-248.333110760213,-3.33813438871584,125.835622574465,0,0,0,0,0,0
408,3.31076170297456,119.316158542206,116.005396839231,-117.660777690719,1.65538085148728,58.0026984196156,0,0,0,0,0,0
409,-14.7702323529811,-12.5203064235102,2.24992592947092,5.13519024701964,-7.38511617649056,1.12496296473546,0,0,0,0,0,0
410,-1.78380616355571,120.77432331047,122.558129474026,-121.666226392248,-0.891903081777855,61.279064737013,0,0,0,0,0,0
411,-1.26907598006073,68.4550242391706,69.7241002192313,-69.089562229201,-0.634537990030367,34.8620501096157,0,0,0,0,0,0
412,4.15645700122695,168.213477604848,164.057020603621,-166.135249104234,2.07822850061348,82.0285103018105,0,0,0,0,0,0
413,4.99651616570191,-99.6713661740068,-104.667882339709,102.169624256858,2.49825808285095,-52.3339411698544,0,0,0,0,0,0
414,-1.81555306757218,-16.9562199485663,-15.1406668809941,16.0484434147802,-0.907776533786091,-7.57033344049705,0,0,0,0,0,0
415,11.9029541559867,61.113268177287,49.2103140213003,-55.1617910992936,5.95147707799333,24.6051570106501,0,0,0,0,0,0
416,2.93352555017918,193.926739635877,190.993214085698,-192.459976860788,1.46676277508959,95.4966070428491,0,0,0,0,0,0
417,2.42739157643518,74.6060081685428,72.1786165921076,-73.3923123803252,1.21369578821759,36.0893082960538,0,0,0,0,0,0
418,-1.05833466813783,-124.360717127071,-123.302382458933,123.831549793002,-0.529167334068916,-61.6511912294663,0,0,0,0,0,0
419,-4.61270814650925,65.8181036961905,70.4308118426998,-68.1244577694451,-2.30635407325462,35.2154059213499,0,0,0,0,0,0
420,2.38212000008207,24.372379293578,21.9902592934959,-23.1813192935369,1.19106000004103,10.995129646748,0,0,0,0,0,0
421,-0.265805655857548,30.6445617852442,30.9103674411017,-30.7774646131729,-0.132902827928774,15.4551837205508,0,0,0,0,0,0
422,-8.46439438825473,-43.1466044459958,-34.682210057741,38.9144072518684,-4.23219719412737,-17.3411050288705,0,0,0,0,0,0
423,-0.557628070382634,-101.354236455983,-100.796608385601,101.075422420792,-0.278814035191317,-50.3983041928004,0,0,0,0,0,0
424,-2.26277112145908,65.2667326497613,67.5295037712203,-66.3981182104908,-1.13138556072954,33.7647518856102,0,0,0,0,0,0
425,-5.29842311664834,-92.4444123659923,-87.145989249344,89.7952008076682,-2.64921155832417,-43.572994624672,0,0,0,0,0,0
426,10.0326212898945,192.159735223016,182.127113933122,-187.143424578069,5.01631064494723,91.063556966561,0,0,0,0,0,0
427,9.69384449141216,-99.0856079514779,-108.77945244289,103.932530197184,4.84692224570608,-54.389726221445,0,0,0,0,0,0
428,0.457442763901781,-172.908089834556,-173.365532598458,173.136811216507,0.228721381950891,-86.6827662992291,0,0,0,0,0,0
429,4.30777113424847,-201.288558982516,-205.596330116765,203.442444549641,2.15388556712423,-102.798165058382,0,0,0,0,0,0
430,-3.48776088611339,-331.204136485962,-327.716375599848,329.460256042905,-1.7438804430567,-163.858187799924,0,0,196.100486393349,200.129632568016,197.762345591967,186.953575945256
431,4.56325408155681,-189.405484379531,-193.968738461088,191.68711142031,2.2816270407784,-42.447592943543,109.073552574002,107.221831813978,-1808.34576095841,-1800.89415075773,-1808.99880759703,-1799.17011279098
432,2.88859357690671,-190.212544892158,-193.101138469065,191.656841680611,1.44429678845336,-1018.78372749011,-1844.46631651116,-1832.24217943547,-4965.40460502545,-4958.87391813935,-4978.99198508824,-4970.4185797048
433,4.21300816821167,-42.7482612642925,-46.9612694325042,44.8547653483984,2.10650408410584,-2549.18029904629,-5051.39932866007,-5066.12095087382,-10227.2588995888,-10231.0668812784,-10251.2057346028,-10241.3465248501
434,-9.14510171854636,-73.4992610057525,-64.3541592872061,68.9267101464793,-4.57255085927318,-5257.00302560347,-10449.6518919197,-10446.2569046324,-20028.3859960108,-20025.238050873,-20057.8316039799,-20057.8047469712
435,1.82188847081852,140.122326973826,138.300438503007,-139.211382738416,0.910944235409261,-10271.6952125222,-20681.6908635474,-20685.2280817943,-50939.6680307943,-50896.7677440702,-50974.8574186924,-50982.89728409
436,-1.81221682703472,21.8327317069343,23.644948533969,-22.7388401204516,-0.906108413517359,-26059.9061268865,-52143.4572023069,-52150.9526388688,-21851.2017312532,-21833.9679136605,-21877.241823843,-21886.1013483154
437,-1.77994192761253,136.291191879573,138.071133807185,-137.181162843379,-0.889970963806263,-11061.2774405668,-22260.6260149409,-22267.9153929943,-12644.4313062915,-12658.4998208947,-12677.0670458171,-12667.8498974047
438,-12.0888158541638,114.641292493121,126.730108347285,-120.685700420203,-6.04440792708192,-6385.44399193983,-12897.6180922269,-12902.5315222731,-7696.80938168115,-7704.96240464514,-7723.7211125218,-7708.15866564831
439,-7.13752504429431,-19.0645823281957,-11.9270572839014,15.4958198060485,-3.56876252214715,-3979.00849394301,-7946.08993060212,-7965.56490358021,-4798.58040559987,-4800.3578710352,-4824.97955519531,-4818.86204379195
440,7.35743319484754,121.241835889232,113.884402694384,-117.563119291808,3.67871659742377,-2343.81400473429,-4801.51241216296,-4793.29384797279,-2883.2109023371,-2906.64796829232,-2903.65799426747,-2885.76855146801
441,-8.87226051822654,5.78959595650667,14.6618564747332,-10.2257262156199,-4.43613025911327,-1458.0269552203,-2930.71576691532,-2944.80707165663,-1843.13615859818,-1836.91916742662,-1850.84377125307,-1840.43245780823
442,8.21593378405669,-11.7646973408409,-19.9806311248976,15.8726642328693,4.10796689202834,-945.392786048265,-1870.80494097163,-1863.09450165185,-1866.59506933464,-1853.67381431715,-1858.47518465499,-1858.12614573821
443,1.78005818699603,68.8063727171393,67.0263145301433,-67.9163436236413,0.890029093498015,-861.738556450699,-1790.50342743154,-1782.72721817595,-1797.07297177927,-1782.57886354579,-1792.14362349597,-1780.73098335243
444,-5.21658439026214,15.8168949644314,21.0334793546936,-18.4251871595625,-2.60829219513107,-890.515937440272,-1802.06535423524,-1810.15254564449,-1800.11773902981,-1810.23920888797,-1793.79349767178,-1810.55870199224
445,7.76527274982072,47.8082946130889,40.0430218632682,-43.9256582381786,3.88263637491036,-864.877048112379,-1769.79711808803,-1784.67165421607,-1789.15738108807,-1771.01622784635,-1774.71057634949,-1779.51062654943
446,4.28035806390108,16.6295958668634,12.3492378029623,-14.4894168349128,2.14017903195054,-969.6952782484,-1951.73979429976,-1964.35118119777,-1953.70112151152,-1960.9280566005,-1952.52739307377,-1948.86409711346
447,-2.54564023576677,100.046945282549,102.592585518316,-101.319765400433,-1.27282011788338,-1039.81582974594,-2182.22424501021,-2179.22455405269,-2167.17767107522,-2171.17506866896,-2173.83164670182,-2181.99521829654
448,-0.0588846049504355,-46.7804916937603,-46.7216070888098,46.7510493912851,-0.0294423024752177,-1361.92252965072,-2677.12345221263,-2657.97652381266,-2660.80219087721,-2654.23347812006,-2669.03092251901,-2668.57252770721
449,1.46139079247951,116.20446301208,114.7430722196,-115.47376761584,0.730695396239753,-1572.58346264609,-3259.90999751177,-3251.06730211878,-3259.59809440054,-3262.82264683215,-3267.43876675717,-3266.75687674285
450,1.44261894427473,-116.2588394575,-117.701458401774,116.980148929637,0.721309472137364,-2387.47341542381,-4657.24537244585,-4681.00712519267,-4672.18867198209,-4663.28359911634,-4664.49971242767,-4676.78869722804
451,7.92554010351887,91.5987866343057,83.6732465307869,-87.6360165825463,3.96277005175943,-4498.14406915,-9079.96138483079,-9080.63348346416,-9067.00434185879,-9061.36417559977,-9091.87750217036,-9075.9031817287
452,-4.0197412626294,91.7553167711885,95.7750580338179,-93.7651874025032,-2.0098706313147,-1486.57284033377,-3068.92073870136,-3072.70279516873,-3078.75470827374,-3068.94232059523,-3090.08989706117,-3072.82185078179
453,-2.25817491926136,-23.8762268664432,-21.6180519471818,22.7471394068125,-1.12908745963068,-568.244817934523,-1114.87158392186,-1119.37327234069,-1105.5161805916,-1107.68495886386,-1118.44290868886,-1120.61132011373
454,3.83067709457828,-34.7730076065927,-38.603684701171,36.6883461538819,1.91533854728914,-46.4480393803969,-54.2923940596229,-55.1505707127799,-59.7009417967929,-44.0541680092283,-41.3867360010045,-50.4376979684748
455,-4.4684520639421,29.9454013417417,34.4138534056838,-32.1796273737127,-2.23422603197105,345.30966615527,656.205478904856,643.55375593208,651.287967800308,647.332566975179,652.32596600239,644.857566834748
456,-13.5292923172237,-34.8432471755077,-21.313954858284,28.0786010168958,-6.76464615861187,485.442354562052,992.198663982388,998.049909823108,983.178119062912,989.200014659757,982.892212301755,989.236320264085
457,2.27549465186894,0.438149079156574,-1.83734557271237,0.699598246777896,1.13774732593447,611.650352665529,1225.13805090377,1234.75167238945,1230.9286202162,1228.62413528364,1229.24537603615,1229.82733075842
458,6.53654629676021,73.9359656244924,67.3994193277322,-70.6676924761123,3.2682731483801,648.450814915253,1229.50221050277,1250.12550879171,1241.64698203065,1237.60117379259,1253.47612192552,1236.5874856158
459,4.67289802679443,171.541569593363,166.868671566568,-169.205120579965,2.33644901339721,737.316916698284,1307.76516183,1291.64019549461,1282.26657792646,1294.13998802583,1294.88559603662,1299.20651457965
460,-2.23763018089812,-23.282515135681,-21.0448849547829,22.163700045232,-1.11881509044906,602.85333069491,1226.7515463446,1221.27218665963,1233.99739162513,1242.80074355786,1232.99535468532,1232.82300209693
461,2.77534316791571,59.5063914861821,56.7310483182664,-58.1187199022243,1.38767158395785,676.058818912526,1295.38658950679,1295.39443437025,1280.9900840077,1302.87725858478,1295.92708055722,1295.64858985669
462,7.27447599876905,-92.3975375308946,-99.6720135296637,96.0347755302791,3.63723799938452,568.595546165496,1236.86310586066,1247.90822322888,1244.7219776712,1236.93759442453,1240.45155408498,1238.75249034839
463,-10.1399253093114,-13.3121365295374,-3.17221122022602,8.2421738748817,-5.06996265465568,658.397863952981,1319.96793912619,1322.05997543357,1329.2416574597,1322.36270985004,1321.53636476916,1324.35924289373
464,2.95902549094171,50.9470058442967,47.9879803533549,-49.4674930988258,1.47951274547086,689.422464199393,1330.85694804543,1336.73766675632,1321.12583793642,1310.19474244461,1319.11525342794,1324.40493365022
465,-19.2971134525142,-60.9552807503787,-41.6581672978646,51.3067240241217,-9.64855672625708,628.826404463864,1299.31097622559,1317.51564141095,1310.90606326863,1320.85827904262,1327.21552093618,1333.1830887314
466,0.361978892586194,-89.4475638276781,-89.8095427202643,89.6285532739712,0.180989446293097,605.7460112431,1301.30156520646,1299.55140506968,1297.13173235636,1298.48187753707,1293.45359127983,1289.41359245143
467,13.5176732348336,-40.5384026022512,-54.0560758370848,47.297239219668,6.75883661741682,640.099000319169,1334.25407647542,1338.90594918447,1339.5024008989,1328.80854349909,1340.9560399348,1337.45958858667
468,-3.24375003224122,-21.0041089479637,-17.7603589157225,19.3822339318431,-1.62187501612061,676.281531276094,1370.32342146791,1357.37690181535,1362.02852943225,1367.36227505334,1373.14037434134,1360.14948120105
469,-3.28417161849211,-35.0812350194901,-31.797063400998,33.4391492102441,-1.64208580924605,656.513545938476,1344.82415527795,1354.19138041636,1357.43215677075,1346.27126067766,1347.18610056778,1355.74511126112
470,8.77381611888995,-27.164173351397,-35.937989470287,31.551081410842,4.38690805944498,679.337518470857,1394.613026412,1389.4064965178,1391.161196862,1392.44465822805,1387.3019365262,1404.90077817644
471,-7.56188180492609,28.8282437039888,36.3901255089149,-32.6091846064519,-3.78094090246304,734.634131968807,1432.8781384287,1420.58097995544,1417.17729926633,1413.85492160739,1414.03558581765,1413.02475435266
472,-4.80340807410539,-131.677822901343,-126.874414827238,129.276118864291,-2.4017040370527,611.807081546445,1350.48857792013,1346.96160039562,1345.93293730932,1343.40050712516,1338.80545585198,1353.73679563715
473,-1.20991870769649,75.5872903573036,76.7972090650001,-76.1922497111518,-0.604959353848244,766.856997578754,1456.91678609251,1470.5120464713,1467.72937562235,1459.52255875268,1482.2703466118,1475.89033832549
474,-7.56188535509864,7.6202639179246,15.1821492730232,-11.4012065954739,-3.78094267754932,730.758615628292,1446.33508198356,1443.56513555066,1445.70458649233,1449.39500106484,1442.33728973582,1438.08700686655
475,18.0041304193728,-94.2995175616525,-112.303647981025,103.301582771339,9.00206520968641,643.512381767476,1399.32841151598,1401.27814092743,1398.55797894855,1408.01023346317,1393.92784834257,1400.48053600834
476,2.56288387282984,-70.482169880037,-73.0450537528668,71.7636118164519,1.28144193641492,657.129544660624,1387.30414307411,1384.42488409509,1388.91383402504,1389.46780935916,1391.58947495598,1391.53610210153
477,-6.83103536212002,109.065667961375,115.896703323495,-112.481185642435,-3.41551768106001,810.455366730501,1505.01403013751,1511.13590449284,1519.35541874095,1496.93619908701,1505.88404591242,1497.83300572739
478,5.1288982029655,129.147500181309,124.018601978343,-126.583051079826,2.56444910148275,809.849518007453,1495.68043403656,1499.01920804949,1500.12666684901,1500.30728839984,1500.63686956457,1488.28621431286
479,2.81244674662594,442.543889501918,439.731442755292,-441.137666128605,1.40622337331297,1062.63846058919,1685.5454784231,1685.87552461342,1680.74589965388,1690.685656441,1690.23981190516,1689.95301744441
480,5.71266852581175,327.264545175014,321.551876649202,-324.408210912108,2.85633426290588,989.520634800065,1657.48939295093,1657.47448877624,1655.72263313242,1645.09994284401,1660.4565589327,1653.04198877292
481,-9.01658860003226,216.872423163091,225.889011763124,-221.380717463107,-4.50829430001613,897.651310101748,1569.41360844037,1571.91084832238,1560.74199152965,1565.0523752764,1574.78341646644,1578.88197606502
482,0.716870672738878,-39.9952235729434,-40.7120942456822,40.3536589093128,0.358435336369439,711.72642493021,1464.1649441061,1451.22420920408,1464.20557839941,1463.31418325429,1465.07842323926,1459.2665977588
483,3.03192533081165,-0.261155942745972,-3.29308127355762,1.7771186081518,1.51596266540582,750.17003661886,1503.63315451128,1518.85333787746,1494.27785071093,1498.97004484021,1507.46846530086,1504.47997959444
484,1.84590262122219,-68.0343798061076,-69.8802824273298,68.9573311167187,0.922951310611097,680.799509252887,1431.4793009331,1430.26865822732,1420.02713731999,1425.32050719278,1437.50966670495,1424.81563677004
485,-10.9820111141889,90.8404251295433,101.822436243732,-96.3314306866378,-5.49100555709447,819.456712739804,1537.09098923588,1542.24009817629,1531.79924361827,1529.68456038309,1535.65436635542,1533.14313289148
486,1.61855337317684,-19.85817788649,-21.4767312596668,20.6674545730784,0.809276686588419,738.174689298248,1497.82610985616,1499.49604192597,1506.39281517942,1507.94322982381,1492.92675650131,1511.31662907242
487,5.51979233810562,5.51906140134088,-0.000730936764739454,-2.75916523228807,2.75989616905281,748.964162234639,1497.92905540604,1507.77738897441,1499.08851548002,1503.81773309494,1510.15577532552,1506.1509780421
488,-7.74510353826918,-75.3848167002434,-67.6397131619742,71.5122649311088,-3.87255176913459,688.469245204964,1444.5782035719,1445.73550425388,1453.7653130838,1445.3048394004,1451.80150400626,1452.14820813382
489,-4.61037829032284,84.9104925424035,89.5208708327264,-87.2156816875649,-2.30518914516142,821.525470261768,1553.53006969081,1531.24147486777,1539.81032363616,1533.65855383829,1544.7266822746,1528.99008100361
490,5.89959746354725,39.8814439425769,33.9818464790296,-36.9316452108033,2.94979873177363,785.564780800181,1537.14771512133,1518.48658141441,1529.67136121425,1526.68400050528,1521.99864946556,1525.5053799387
491,-12.4432285767689,-96.0614035390026,-83.6181749622338,89.8397892506182,-6.22161428838444,1331.05482302554,2745.72782101331,2727.997440748,2730.20911643878,2732.22530162107,2726.60657954679,2738.61971480615
492,5.65191092478926,-103.328005838615,-108.979916763405,106.15396130101,2.82595546239463,2410.94031465972,4930.86054608284,4931.1950715342,4940.11551332232,4930.51326906486,4938.60556813946,4942.2991805991
493,6.66284968086984,146.114193320653,139.451343639783,-142.782768480218,3.33142484043492,4391.848265729,8644.24518781822,8664.29415942717,8661.09089749312,8655.58734998206,8669.65003978403,8663.2786361741
494,-1.15543778447318,-42.040670613118,-40.8852328286448,41.4629517208814,-0.577718892236589,7221.689538017,14484.2643088627,14485.1595940387,14467.3831396533,14444.843339297,14484.1980825182,14479.3155521922
495,3.69060245685978,-236.871914154326,-240.562516611186,238.717215382756,1.84530122842989,12582.3014459838,25405.1654085787,25424.1296756737,25395.8891495689,25370.3006659411,25427.0643563736,25428.6440602526
496,-9.53958557924489,-708.062092530192,-698.522506950947,703.292299740569,-4.76979278962244,29612.7620787964,59924.0466645438,59936.2696063575,59890.9705956887,59832.631227742,59950.9743873094,59947.5700812682
497,2.9407350863039,-251.443308226648,-254.384043312952,252.9136757698,1.47036754315195,12435.880578627,25126.145200567,25144.7427246642,25120.5324744681,25111.2279817192,25144.7096599729,25145.506547534
498,1.74743548751576,-303.687150973303,-305.434586460819,304.560868717061,0.873717743757879,6845.06978531441,13995.5741570896,14010.7066770192,13971.006151144,13982.6316435976,14020.050824557,14003.0658594841
499,3.59642407248612,-95.8212914257892,-99.4177154982754,97.6195034620323,1.79821203624306,4006.47927763921,8112.3762707767,8114.36396500847,8081.91219346371,8088.96971758644,8102.78721878643,8115.32163231954
500,-15.5038202294381,-22.460081868514,-6.95626163907582,14.7081717537949,-7.75191011471907,2247.31356950215,4501.58340064337,4513.95912518408,4510.29584516311,4510.64749266795,4525.73565731139,4518.1094880946
501,17.572487918369,83.433712197264,65.861224278895,-74.6474682380795,8.7862439591845,1205.97503065951,2346.08883704012,2343.46375095792,2351.81551058154,2340.4183073848,2351.07550704933,2356.26469870459
502,-6.48902514149086,125.877893651021,132.366918792512,-129.122406221766,-3.24451257074543,611.029025367374,1089.69113194224,1091.28275129106,1080.57967127225,1081.72038698709,1072.89017387008,1078.21237238409
503,10.9587829567026,-128.996472989529,-139.955255946232,134.47586446788,5.47939147835132,402.192790430941,944.340836808115,949.092407928692,929.889843660872,939.859202057269,948.044117741229,937.367564383341
504,-4.93495233816793,-35.839766031102,-30.9048136929341,33.3722898620181,-2.46747616908397,484.243134334261,999.391082361457,991.767428127059,1011.68350688071,997.393103626964,1000.58753917718,1011.57794995751
505,17.8764636784908,-171.777284421056,-189.653748099547,180.715516260301,8.93823183924542,342.379527537443,874.412803174433,875.13783106528,863.268023296085,870.324532052182,876.290026323957,878.858758125105
506,-5.86783254193142,-281.11896795762,-275.251135415689,278.185051686654,-2.93391627096571,271.149714779895,817.550564975478,840.198917473404,842.804555823939,826.224466455955,827.144438536343,824.508656417427
507,-13.1366860356356,-154.303024757857,-141.166338722222,147.734681740039,-6.56834301781782,388.622585100034,918.411508922291,903.978392011923,913.610180168791,901.874074034276,918.365387828089,912.61970474798
508,7.83731727290433,-117.533665316907,-125.370982589811,121.452323953359,3.91865863645216,399.81157100109,924.994124591991,930.208958261443,921.880541240913,924.858824594645,917.021733068803,909.922331547976
509,7.41819254049915,-39.6425273035129,-47.0607198440121,43.3516235737625,3.70909627024957,436.922559383587,920.905838611186,928.44177114265,931.494953837362,938.953314451996,933.784175522305,922.360268571094
510,2.81762696916121,6.50228845523088,3.68466148606967,-5.09347497065028,1.40881348458061,490.964886782269,978.245112078468,970.598056498973,972.421538199822,967.492470237834,984.528492841084,983.520988011063
511,-1.8516315651359,24.3829000441474,26.2345316092833,-25.3087158267153,-0.925815782567952,492.007562579092,957.780593548901,952.100244477944,953.608916420431,967.964010175783,961.534747432976,944.690819242445
512,-15.492138607282,140.081432841398,155.57357144868,-147.827502145039,-7.74606930364098,583.280314960459,1010.98705847224,1023.19641086375,1012.91382671421,1024.58929066866,1016.53611317056,1035.94091487501
513,7.486181070155,25.820807028329,18.334625958174,-22.0777164932515,3.7430905350775,499.158648138691,979.982670319208,963.732997972169,968.387988013215,974.911218342575,974.556778741011,976.930492607004
514,0.377469152124831,100.601449289796,100.223980137671,-100.412714713733,0.188734576062416,544.692135628036,989.160291118402,983.073394030507,987.059498906427,986.366416000441,979.479827964009,976.013081948098
515,-5.39152918930631,-31.8327366467274,-26.4412074574211,29.1369720520743,-2.69576459465316,436.425328016587,899.291863490595,893.09777888807,887.721419528651,889.830145250715,911.51274774014,915.75915405454
516,-1.31138308346272,-116.389785750216,-115.078402666753,115.734094208485,-0.655691541731358,360.042769403022,835.163941472798,836.079265200649,841.38262425494,843.904814622394,843.064193197526,838.444486285618
517,0.581535846722545,-91.238089743274,-91.8196255899966,91.5288576666353,0.290767923361273,371.90909748376,835.637820557517,831.522140667454,829.73135429126,837.728187770146,835.445003934234,830.684016014595
518,-0.408127452770714,-60.1995328303892,-59.7914053776185,59.9954691040039,-0.204063726385357,404.105429328003,868.002264033625,866.562234155746,855.831591196562,854.470570567908,857.041990972677,861.90631474994
519,11.6808732026839,-17.3396705377381,-29.020543740422,23.1801071390801,5.84043660134193,434.270860332108,897.562264404638,908.670900839643,897.054173204029,892.256665293768,903.22698672043,885.455259826675
520,1.5283709638461,-167.279116054386,-168.807487018232,168.043301536309,0.76418548192305,297.267663539023,763.342814096279,782.22487993908,790.25332938839,776.177874930669,767.137272467458,788.193419496587
521,6.51724758386263,-77.611660539842,-84.1289081237046,80.8702843317733,3.25862379193131,372.61360586145,829.356119846605,825.307844239316,824.693732977525,822.960182874755,821.947099512065,825.934789673571
522,0.920809071249096,-29.7430864798953,-30.6638955511444,30.2034910155198,0.460404535624548,399.751755234131,830.167406019405,832.219624999678,840.721546013316,829.851114352525,825.581561661907,824.962931286922
523,1.63969329505926,-60.4584435736469,-62.0981368687062,61.2782902211766,0.81984664752963,366.0538574237,794.205851716106,788.191066821193,797.381651336269,796.973989895632,795.375204947166,803.426664429862
524,-3.67463983778725,-85.762100715714,-82.0874608779268,83.9247807968204,-1.83731991889363,370.358845713708,822.805152305344,816.933509247028,807.18125009659,822.593653003394,824.562154586805,805.788570459525
525,-11.9369001123414,36.9270451164921,48.8639452288335,-42.8954951726628,-5.9684500561707,466.305191830164,883.746438431495,886.954929643252,869.378333781002,876.899230542738,883.215161242901,891.00453355856
526,-16.3137696429039,44.7638187986449,61.0775884415489,-52.9207036200969,-8.15688482145197,449.912927446509,838.748266451468,845.660060570226,844.681272453076,829.09464347898,847.970740887948,841.655431799911
527,5.14981118604192,-65.2672525274393,-70.4170637134812,67.8421581204602,2.57490559302096,355.93688831474,782.290840342961,759.691800894652,782.908953127888,769.77544146718,767.040153034439,783.497705213231
528,-1.82451896456769,-6.82018928523758,-4.99567032066989,5.90792980295373,-0.912259482283844,397.643341945848,800.282354212366,807.246077837102,819.065239005256,819.637936494488,800.956289408408,796.929611499974
529,-1.44670428006793,-326.518932587147,-325.072228307079,325.795580447113,-0.723352140033967,151.487203173703,628.046634654485,626.692192103044,620.403038315708,630.910201079212,626.809369795898,622.31341308885
530,-11.2730430176598,-451.278987360158,-440.005944342498,445.642465851328,-5.6365215088299,61.8491770748078,563.704298492114,562.432991284266,555.862910064345,554.848486835079,564.506744127633,569.722891891812
531,5.65966521744849,-100.344818181125,-106.004483398574,103.17465078985,2.82983260872425,324.670240887746,755.344965174067,757.708966616396,758.120782770391,746.934595516796,765.966959749261,741.773146643012
532,-2.74746414911351,-105.315731382434,-102.568267233321,103.941999307877,-1.37373207455676,323.936046276183,750.440359785687,752.281479036668,737.15393344831,755.945906051871,743.286700199504,749.288733255264
533,5.8676247545518,-193.26074558479,-199.128370339342,196.194557962066,2.9338123772759,234.830532248976,668.789434837294,655.500999911339,664.428638310928,658.749426099937,674.42132046484,683.341972830123
534,2.39521966993925,-5.03005302630481,-7.42527269624406,6.22766286127444,1.19760983496963,375.722683575135,758.870639846515,756.162324720732,756.215168191644,763.153328344313,759.555564038747,766.3321119881
535,-10.5630023745762,46.6178917774232,57.1808941519994,-51.8993929647113,-5.28150118728809,418.176719952113,779.172545752226,789.889065209689,788.63323137362,775.695472656254,781.504091506737,780.8659506939
536,7.78645907124155,159.253781167412,151.46732209617,-155.360551631791,3.89322953562078,498.82186231832,846.17640254047,853.451087907102,856.52226344496,845.116648345313,860.240390077903,839.991170288005
537,-4.90761818861938,-76.3827807730704,-71.475162584451,73.9289716787607,-2.45380909430969,346.797035705633,765.069233995717,759.587857744744,756.566872919328,764.913065381465,765.729411727603,764.825875119481
538,6.36157668486703,-26.1895344902296,-32.5511111750966,29.3703228326631,3.18078834243352,418.148420170415,868.847951515927,856.16385657707,849.866393603937,845.130308027496,848.981407076644,853.941171493905
539,17.127640014427,112.450513295771,95.3228732813441,-103.886693288558,8.56382000721351,563.686105373374,1032.0493374654,1038.24217387725,1034.87132742195,1033.88822163673,1036.20120590515,1037.63660038938
540,3.0366644783644,134.252025770722,131.215361292358,-132.73369353154,1.5183322391822,711.843184243844,1292.47100719533,1289.03767718858,1301.07538343372,1298.54285182324,1291.91523292151,1293.48511528689
541,-4.26017732298351,93.4167721571575,97.676949480141,-95.5468608186493,-2.13008866149175,857.249723616944,1616.82249775375,1616.20074011828,1624.55664472253,1617.93930339316,1618.71827370729,1614.79563564894
542,2.57744725560769,6.55934227930265,3.98189502369496,-5.27061865149881,1.28872362780385,1454.47893531235,2904.975975601,2915.70133022219,2899.93834610525,2886.70354737566,2900.0532354647,2898.74422613918
543,4.37967418436892,-59.2704259507591,-63.650100135128,61.4602630429436,2.18983709218446,298.96977598143,661.589652097988,666.360400699574,653.740372699307,660.700336921116,659.946103299764,682.388590277929
544,-0.3101747672481,94.0518433573016,94.3620181245497,-94.2069307409256,-0.15508738362405,25.2705129464593,-43.820992231631,-43.0812516185688,-31.3671213236521,-33.5147955928405,-35.2532165623561,-40.8544063683366
545,3.34388291090727,16.4898661559564,13.1459832450491,-14.8179247005028,1.67194145545363,-233.190214448798,-479.526412142644,-483.792829918268,-491.107319676928,-485.166506994632,-488.191121439013,-485.263290551782
546,-6.54306263488252,64.0317471699964,70.5748098048789,-67.3032784874376,-3.27153131744126,-310.248448000697,-691.071705806273,-696.425202884799,-694.014923874405,-684.107387239172,-708.310284737323,-691.942441583466
547,-5.93720762067824,214.469627251441,220.406834872119,-217.43823106178,-2.96860381033912,-280.638903054933,-781.684640981985,-769.722536052635,-766.389596973546,-772.297314084135,-779.387820850359,-776.977840517735
548,-2.1218088894675,116.195640294522,118.317449183989,-117.256544739255,-1.06090444473375,-396.449657140111,-911.21676346421,-919.822133378184,-919.39772467743,-915.417110351787,-912.801869090938,-927.343696430617
549,-0.461483432474779,-96.2797486972413,-95.8182652647665,96.0490069810039,-0.230741716237389,-584.11869136036,-1072.41911745595,-1067.34610708166,-1072.06949920545,-1078.87977147228,-1064.56735304513,-1079.02500507733
550,4.30127188487677,-51.0760252494947,-55.3772971343715,53.2266611919331,2.15063594243838,-549.66909439594,-1043.96089165751,-1050.34945396581,-1042.66460287716,-1040.85320483436,-1050.18200071499,-1039.88526498311
551,5.53965007723309,82.0612186879735,76.5215686107404,-79.2913936493569,2.76982503861655,-475.946202992403,-1028.41397459555,-1033.26560538888,-1029.3391080588,-1027.07889708626,-1027.55805035401,-1038.291563835
552,-16.0656680338434,-66.4066525877279,-50.3409845538845,58.3738185708062,-8.0328340169217,-575.279519064308,-1100.21805357473,-1087.81754467226,-1072.94011654984,-1089.39364190289,-1083.33381489103,-1093.1148545208
553,-7.28387030350859,-82.9511746022326,-75.667304298724,79.3092394504783,-3.6419351517543,-615.037080654438,-1154.40685701015,-1173.37387146425,-1172.42984903359,-1163.80002154707,-1164.95959513338,-1164.90297304778
554,6.12175761489198,-11.5667391326278,-17.6884967475198,14.6276179400738,3.06087880744599,-580.915366880174,-1144.14223701283,-1149.30099030002,-1160.28306049609,-1144.30056295032,-1146.56664388182,-1130.51724308127
555,0.494022934959503,-121.771992486727,-122.266015421686,122.019003954207,0.247011467479751,-669.424370110908,-1216.58272480013,-1201.21144163504,-1212.49528914772,-1202.16729627436,-1206.7463400166,-1205.20559509328
556,-8.30653019336751,-75.1564163007133,-66.8498861073458,71.0031512040296,-4.15326509668375,-642.60276977859,-1218.35565344983,-1225.14473061234,-1220.55701675871,-1226.49587154848,-1225.62495067687,-1228.48914725002
557,2.38116294672363,6.3933851516922,4.01222220496857,-5.20280367833038,1.19058147336182,-599.508370376716,-1203.0289629584,-1196.25616512587,-1202.80132677354,-1195.73840908986,-1184.13897799648,-1192.57698378974
558,-0.615325791935902,-110.64186869876,-110.026542906824,110.334205802792,-0.307662895967951,-690.105860925178,-1270.18517894353,-1291.076919816,-1275.45907023508,-1269.6943246623,-1283.05963773699,-1276.85982738034
559,9.24019342823885,-3.08596330322325,-12.3261567314621,7.70606001734268,4.62009671411943,-653.454881474943,-1294.58360621842,-1279.4058085476,-1281.24456247262,-1285.9570103123,-1298.31363963956,-1292.11083116379
560,12.1952998533961,-136.191567905247,-148.386867758643,142.289217831945,6.09764992669807,-756.197691992114,-1364.00851622559,-1366.7336860564,-1368.14918862921,-1373.23863140919,-1368.59394004077,-1368.41203566286
561,-17.5109093641222,-154.380770422402,-136.86986105828,145.625315740341,-8.7554546820611,-750.531004424411,-1364.19214779054,-1363.28752130855,-1363.99863620842,-1355.66662653451,-1363.50947874485,-1361.60581790941
562,-7.96749401130364,96.5752016978513,104.542695709155,-100.558948703503,-3.98374700565182,-588.808542918981,-1282.15978154712,-1283.23839991412,-1259.25681659888,-1269.26454854579,-1286.16044370047,-1269.42826587503
563,-4.54715273759211,5.35316282106214,9.90031555865426,-7.6267391898582,-2.27357636879606,-668.708412019114,-1347.31713959688,-1345.20600980931,-1337.52517349794,-1338.0420591617,-1347.05628820331,-1359.00188787177
564,4.14834651528508,89.0780943634745,84.9297478481894,-87.003921105832,2.07417325764254,-621.090733196761,-1327.11121424171,-1313.63769481998,-1321.02474643113,-1317.81806249131,-1320.91628144181,-1336.44396987825
565,4.79188133450225,109.902436030854,105.110554696352,-107.506495363603,2.39594066725113,-608.913875687838,-1322.93830607203,-1316.8786702872,-1340.48425862764,-1326.71258476889,-1318.45637428813,-1317.32274342567
566,7.69074333179742,167.857351552782,160.166608220985,-164.011979886884,3.84537166589871,-581.838005885249,-1323.84261999148,-1316.09142370801,-1322.8645818618,-1324.71211067797,-1317.45789622894,-1312.46402951033
567,2.71451434571645,110.870267969876,108.15575362416,-109.513010797018,1.35725717285823,-614.806662302813,-1337.76907822979,-1346.00717268867,-1335.54021955127,-1332.25964530834,-1342.76745701677,-1337.15411224886
568,2.60307578163338,139.092308134161,136.489232352527,-137.790770243344,1.30153789081669,-616.984104568066,-1370.45744148866,-1377.56532309271,-1368.41775976028,-1363.87300835561,-1373.29568150922,-1359.19055981771
569,4.40661287042894,104.077765035443,99.6711521650141,-101.874458600229,2.20330643521447,-645.363718248307,-1390.39858866163,-1401.06250596125,-1406.542982493,-1407.57502428297,-1414.0866490773,-1402.92001537699
570,10.5766854640387,54.6665136500669,44.0898281860282,-49.3781709180475,5.28834273201937,-683.593980870137,-1411.2777899263,-1428.51399564173,-1403.74429133601,-1426.11689044963,-1415.43401170315,-1414.57898439138
571,-0.863973946863553,115.455308219622,116.319282166485,-115.887295193053,-0.431986973431776,-649.900167402564,-1416.11961697161,-1422.96027019888,-1425.66359007609,-1417.87356561419,-1429.90103074766,-1427.33911692965
572,-0.246055720286677,-135.673389919102,-135.427334198816,135.550362058959,-0.123027860143338,-843.842403997507,-1552.2574737962,-1558.45693465878,-1557.6148914994,-1550.57937745383,-1554.28666528146,-1555.55147563334
573,-9.26805691389018,-103.517426340812,-94.2493694269215,98.8833978838666,-4.63402845694509,-818.906602886927,-1543.56383634693,-1533.30971229944,-1529.69414362541,-1531.27574210952,-1543.21334538891,-1548.40663849196
574,-7.29466295382008,-138.987418779026,-131.692755825206,135.340087302116,-3.64733147691004,-864.908110003656,-1598.12346418211,-1590.65502637636,-1592.60377305513,-1610.77553656368,-1605.22604555485,-1601.2637212043
575,-8.09640606012545,-102.648365736881,-94.5519596767554,98.6001627068181,-4.04820303006272,-858.271381939587,-1621.99080420242,-1606.67365511603,-1598.84208393423,-1610.84097071731,-1608.30701336285,-1610.7993070152
576,3.61959144083085,63.4741549471801,59.8545635063492,-61.6643592267646,1.80979572041542,-745.193006445334,-1550.24057639702,-1545.7254269571,-1551.14163565217,-1546.36581636794,-1529.94655420491,-1545.04841689859
577,1.51009751355741,10.3798487041495,8.86975119059207,-9.62479994737078,0.755048756778706,-796.083508938827,-1601.03676906825,-1579.2791161114,-1582.56396669871,-1566.04246541721,-1581.99678904354,-1582.63097348652
578,5.38957676143036,253.573956120061,248.18437935863,-250.879167739346,2.69478838071518,-599.310526606278,-1446.80543257119,-1436.8307492302,-1447.02725019187,-1438.90383854083,-1443.85052200276,-1446.99261842744
579,1.30023546426673,220.173132929223,218.872897464957,-219.52301519709,0.650117732133367,-633.951082453961,-1486.77506237288,-1484.31335999482,-1480.8258838664,-1489.75413013838,-1488.23606357045,-1494.41236103512
580,-10.8079644819372,594.450022604666,605.257987086603,-599.854004845634,-5.40398224096862,-362.705092780467,-1330.66817264754,-1341.72958056343,-1340.22264216424,-1330.34091652499,-1335.22786886155,-1330.17987101452
581,-1.21579198597465,232.005514036602,233.221306022577,-232.613410029589,-0.607895992987324,-658.347011893464,-1549.9153298095,-1571.82380111038,-1562.5053303357,-1561.85224489708,-1575.17711017258,-1571.04875445654
582,-7.00134356599301,42.7019244564581,49.7032680224511,-46.2025962394546,-3.50067178299651,-1667.27335250983,-3384.24997304211,-3376.35986057064,-3364.92729687851,-3367.02665287751,-3388.77470398546,-3383.54161435156
583,4.95151182805421,161.741326101794,156.789814273739,-159.265570187767,2.4757559140271,-3072.03060014651,-6300.85101456675,-6322.64099108399,-6330.3953985461,-6318.3344080016,-6321.59746440206,-6338.5778565369
584,12.2824241876951,94.700109338999,82.4176851513039,-88.5588972451515,6.14121209384757,-5613.62964568935,-11309.67697653,-11299.5568637973,-11283.3006674635,-11291.1601029517,-11299.5927474129,-11301.8141968195
585,0.819741953862831,114.153510404576,113.333768450713,-113.743639427645,0.409870976931416,-9651.23803527938,-19415.8098390095,-19416.50674286,-19396.3211177023,-19377.9340221257,-19421.5640969621,-19401.1210127087
586,-5.6021117598284,341.605115647078,347.207227406907,-344.406171526993,-2.8010558799142,-16995.6412355857,-34338.4896985783,-34353.1112786337,-34312.2409546976,-34284.2462207041,-34359.508484115,-34360.6912178573
587,-1.02913576576975,1100.73827609495,1101.76741186072,-1101.25284397784,-0.514567882884876,-40196.790367829,-81495.3481475187,-81533.9318407268,-81437.7893804766,-81387.0361459577,-81557.1450135522,-81541.4396828235
588,8.15861687634606,395.821429555246,387.6628126789,-391.742121117073,4.07930843817303,-16801.1173317911,-33989.8974762612,-34002.4595588134,-33963.9138687012,-33944.0335469616,-34007.635266964,-34002.3238806799
589,3.7077164351067,177.752100164565,174.044383729459,-175.898241947012,1.85385821755335,-9363.24851109253,-18900.5414059145,-18903.3370733559,-18892.6461161073,-18885.4285686105,-18914.4050990343,-18909.4848348688
590,-15.4197493445827,77.2189255321282,92.6386748767109,-84.9288002044195,-7.70987467229133,-5311.07835095671,-10714.7953767901,-10709.6313025393,-10723.5761182502,-10707.385617215,-10717.9215897163,-10711.6646852608
591,4.7173979053041,49.8206927787105,45.1032948734064,-47.4619938260585,2.35869895265205,-2857.92842925616,-5760.96015338573,-5764.4862765187,-5737.16108291692,-5727.16258568465,-5743.54676565822,-5753.25869068821
592,6.78034515783656,65.3707352078054,58.5903900499688,-61.9805626288871,3.39017257891828,-1320.12973176615,-2698.84985358227,-2695.0741628946,-2691.08837829434,-2685.52871758043,-2699.52291244117,-2710.84498426321
593,-17.7514103947033,0.81085601056111,18.5622664052644,-9.68656120791275,-8.87570519735164,-478.356883222965,-975.276032851194,-960.696358988585,-979.525975129276,-976.995202139282,-981.104107166087,-980.121398241841
594,-6.81911795839551,-115.915425420942,-109.096307462547,112.505866441745,-3.40955897919775,-552.819573275876,-996.542839089205,-1013.86269378031,-995.551144993893,-1001.25103415805,-1009.47592318404,-1011.14629203142
595,-0.508291177888168,-179.459850624902,-178.951559447014,179.205705035958,-0.254145588944084,-612.572668103763,-1046.19377676051,-1044.70548297054,-1045.98664184968,-1045.6791724521,-1051.06104051427,-1061.07407261094
596,2.22521281937952,36.3470394631149,34.1218266437354,-35.2344330534252,1.11260640968976,-423.026067941551,-880.173962526838,-884.899026591826,-882.079346199171,-877.966995081573,-882.444090012257,-862.30499486957
597,5.39886563076288,114.819374087238,109.420508456475,-112.119941271856,2.69943281538144,-360.361703937408,-830.14391633129,-839.824149269611,-848.921674117766,-838.491794636764,-842.682056093181,-833.747803762963
598,1.23467098595574,-52.4017433308181,-53.6364143167739,53.019078823796,0.617335492977872,-468.593590024218,-883.550765731663,-880.849846002006,-885.202459764056,-886.410207671288,-889.639108546718,-888.142354067619
599,13.7208724282682,16.4776907848136,2.75681835654541,-9.61725457067951,6.8604362141341,-415.4043990926,-833.565616541746,-839.363572141039,-828.916122391762,-841.06438739982,-840.73621927746,-835.545469548058
600,6.10281177627621,51.642864942376,45.5400531660998,-48.5914590542379,3.05140588813811,-372.188640815395,-789.91733479689,-780.67095163351,-776.318886255904,-781.338643520139,-786.716078078141,-787.099582850904
601,2.62403627214371,-37.5144942821062,-40.1385305542499,38.826512418178,1.31201813607186,-421.49509261061,-802.851654666971,-805.930479632982,-800.771869780263,-808.399689547863,-805.181261596153,-811.190743462939
602,-9.81931318380521,74.2082184745523,84.0275316583575,-79.1178750664549,-4.9096565919026,-328.687327525782,-741.402186709922,-739.706943294819,-745.51267529765,-740.101901969319,-732.662285456201,-723.764871859108
603,-10.0384326117055,59.4661266916373,69.5045593033428,-64.4853429974901,-5.01921630585275,-314.962221351132,-699.429002005607,-702.953925021749,-688.98333356285,-696.192474207666,-689.638448707206,-700.248330456612
604,-2.61157259435277,-117.25094918767,-114.639376593317,115.945162890494,-1.30578629717638,-474.309115918964,-833.978855244612,-839.563898794091,-839.28953736453,-853.965404455026,-838.156618736888,-830.001903564087
605,8.00755401895731,60.1572260760586,52.1496720571013,-56.1534490665799,4.00377700947865,-358.770629854218,-769.690931765537,-774.92345976457,-792.75510479993,-775.131767892104,-776.22328221536,-782.937420152564
606,-1.96477814472746,-13.941861461848,-11.9770833171206,12.9594723894843,-0.982389072363731,-437.964026841291,-863.950970365462,-859.416260049125,-873.122424750269,-880.683755402861,-861.796833298751,-869.991491352586
607,2.32328357786173,85.1846228800714,82.8613393022097,-84.0229810911405,1.16164178893087,-555.355265525039,-1193.57187035229,-1189.32394669548,-1192.62663622422,-1188.07752846502,-1180.18488317306,-1201.1487087479
608,-11.977175853157,52.1430943471787,64.1202702003357,-58.1316822737572,-5.98858792657848,-353.622649721394,-771.365569643123,-767.120598428504,-762.935607630701,-759.83894512133,-772.363006171334,-776.113922922726
609,10.8500736081041,-37.0233852301608,-47.8734588382649,42.4484220342129,5.42503680405207,-350.566258646097,-653.259058453928,-653.615379927884,-667.721319322183,-655.732931626757,-635.717226179899,-660.149992916384
610,-4.36896710950532,-27.8603973189602,-23.4914302094548,25.6759137642075,-2.18448355475266,-297.95557485889,-572.419719508325,-555.887506861094,-566.58315559075,-554.088035971974,-574.887960081105,-558.69077263397
611,5.32993546393118,174.302069346188,168.972133882256,-171.637101614222,2.66496773196559,-117.153589941008,-403.279313764273,-412.99905299145,-406.01130394853,-419.556434017548,-414.392423341895,-414.974720352853
612,-1.02298669988522,175.730502022197,176.753488722083,-176.24199537214,-0.511493349942612,-109.43970530176,-395.632899325603,-387.714424326841,-389.177317945985,-383.408210393623,-394.917515465582,-378.314423823933
613,4.81861503768596,35.1575010805391,30.3388860428531,-32.7481935616961,2.40930751884298,-229.724691729978,-489.788269502809,-502.722995533433,-488.850286199391,-497.358066447807,-498.799844141293,-504.179393760016
614,-7.85124921589158,118.813404952845,126.664654168737,-122.739029560791,-3.92562460794579,-266.531983054345,-659.728620277427,-655.137207209569,-643.998044776439,-640.855383887829,-664.355628940772,-646.697780528339
615,-1.96620307900594,113.197898924846,115.164102003851,-114.181000464348,-0.983101539502968,-103.137163947569,-321.43842989899,-313.209843844059,-304.775933229306,-313.771776959795,-334.74966039072,-319.590762998065
616,-1.10833401762648,210.840198724327,211.948532741953,-211.39436573314,-0.554167008813238,35.6380996283115,-140.67233348533,-142.528493647114,-144.859901060525,-139.440347320517,-122.123861235799,-144.473178615532
617,-0.229377883806592,-186.308862631908,-186.079484748101,186.194173690004,-0.114688941903296,-232.43610162499,-278.792718501878,-283.351663133479,-287.22063716728,-275.45537288161,-283.560987815174,-275.924167150195
618,6.26793740878929,-146.302990176424,-152.570927585213,149.436958880819,3.13396870439465,238.80344468102,630.177816947253,629.481239305373,622.022614245099,624.103087694355,633.62467619282,611.562672074127
619,-0.0143097264808603,-48.1862239215989,-48.171914195118,48.1790690583584,-0.00715486324043013,304.813447986409,657.798810167937,665.941502957576,649.504653616605,662.93922258832,654.345675726363,663.076612146629
620,-5.43695116386516,-85.3183450953511,-79.8813939314859,82.5998695134185,-2.71847558193258,288.619410382773,657.120214697032,663.689588284411,667.653121576499,661.695053720556,659.886950652144,663.870235459297
621,-2.6337639974081,-16.7503918877046,-14.1166278902965,15.4335098890006,-1.31688199870405,315.871643085673,645.859914061642,649.804456238198,646.315639719163,648.429760491941,643.027123748267,649.834311737388
622,-16.6723054206232,101.897393978055,118.569699398678,-110.233546688367,-8.33615271031158,443.904287978556,769.238876558433,769.275015863212,770.532961672434,763.653566171997,787.045478597429,768.035740949097
623,7.08246929117013,-9.68393563310383,-16.766404924274,13.2251702786889,3.54123464558506,329.764640109293,676.295685142861,670.789834912255,672.957672077639,667.516175724333,680.804542731319,671.091863604146
624,5.12937092676293,-63.4567136555852,-68.5860845823481,66.0213991189667,2.56468546338147,279.364713089642,627.315510761633,640.486226543522,646.944303677243,630.705622071313,629.879524990509,636.823671485356
625,16.1700827205495,34.1156259292329,17.9455432086834,-26.0305845689581,8.08504136027477,350.871622320381,683.797701432079,680.261691523687,688.515593648044,693.613307517284,680.771956185927,675.166911327746
626,-7.6840419897344,1.98175853173598,9.66580052147037,-5.82377952660318,-3.8420209948672,332.030955689159,654.396110856847,650.75865245983,657.710080070654,663.059919450694,664.882376741269,663.780138331524
627,-1.79300331629929,-124.970992879797,-123.177989563497,124.074491221647,-0.896501658149646,228.249984937545,579.677959438588,572.292018668406,572.959187846544,564.604322831729,574.814834131103,574.623125784099
628,-2.88874902017415,3.82881067018025,6.71755969035439,-5.27318518026732,-1.44437451008707,321.112205698169,635.506851705984,636.199317933933,639.987249838887,636.877758902032,626.497765592125,643.297972868488
629,-2.60681151301833,-13.2435621013574,-10.6367505883391,11.9401563448482,-1.30340575650916,295.649162553396,601.935075695132,608.386784259084,600.050353625993,601.268527633685,603.04346421879,590.765197728993
630,1.17229266490904,-155.265456680063,-156.437749344972,155.851603012517,0.586146332454518,174.814025292246,506.065799929464,499.073501666106,517.317557014292,501.241601959715,496.042735689611,509.300620999944
631,-3.51315335798427,-55.1474029834499,-51.6342496254656,53.3908263044577,-1.75657667899213,264.396249349054,580.426748323574,574.163860767789,565.726294979162,580.767065185588,573.257526380039,579.743084792164
632,-6.23219981516013,-81.730458951788,-75.4982591366279,78.614359044208,-3.11609990758006,239.919932136661,555.338123409951,565.419916755462,559.543720719172,561.435997445835,559.129674300319,567.346288936969
633,7.72476299491245,-1.57083869350026,-9.29560168841272,5.43322019095649,3.86238149745623,296.944304516786,603.184210721985,601.827034886432,612.213628022117,621.196817394113,602.150076672406,602.999161470332
634,4.87589380177087,37.727376814466,32.8514830126951,-35.2894299135805,2.43794690088544,319.878172867451,606.904862722207,597.780059575598,612.174612160306,605.312020931015,617.423152140604,624.164907249884
635,3.83709252966219,18.8552665805328,15.0181740508706,-16.9367203157017,1.91854626483109,316.16019668353,617.302219316189,607.039295196737,613.182655156212,609.108440165408,604.206337163225,606.589991869987
636,6.2853960779903,61.3788219903654,55.0934259123751,-58.2361239513702,3.14269803899515,351.144542787122,647.195659661869,645.534681369812,645.635416974575,638.744081792946,633.160963664996,635.291761911853
637,-12.7422857828788,-82.8216953582305,-70.0794095753517,76.4505524667911,-6.37114289143938,238.862165395825,547.803740367002,553.842629806313,553.52133464982,544.607860588527,559.490410815662,558.806584023696
638,-1.83831809065305,74.4965257263393,76.3348438169924,-75.4156847716658,-0.919159045326523,350.10872702206,623.882610227127,622.469757466024,613.064946909144,609.738232890028,620.624863922829,626.316781124973
639,5.21468269446632,-50.5405067019747,-55.755189396441,53.1478480492078,2.60734134723316,244.185685769044,544.126560934528,550.54141986047,531.245115430793,538.365909242275,539.361748506199,533.251978131244
640,1.24279944298905,80.9911336788791,79.7483342358901,-80.3697339573846,0.621399721494527,320.111383689378,560.474433142866,556.592398560198,556.213319852774,558.151252607116,574.821824027138,565.364758233569
641,3.2924787075608,-88.5224290130427,-91.8149077206035,90.1686683668231,1.6462393537804,190.31310973737,472.441127195343,461.790221115283,477.031750830007,457.210094262875,472.690434307733,476.313533741166
642,3.59812788828276,-35.4139787624881,-39.0121066507709,37.2130427066295,1.79906394414138,224.59459482308,488.201296296931,493.814514305122,503.113150133024,486.223676493188,495.634368708503,511.639828746906
643,1.01395631290507,160.825888375432,159.811932062526,-160.318910218979,0.506978156452533,239.449807580604,319.087683098682,321.822301358945,327.221116561617,309.201670148672,321.229043521918,311.117932555208
644,-0.157176744076423,12.519031027914,12.6762077719904,-12.5976193999522,-0.0785883720382117,-132.605038171445,-277.88628411488,-264.547120149451,-267.763452991319,-262.061928879994,-275.995229637891,-274.858872741315
645,-1.78369706484955,22.8353366332885,24.6190336981381,-23.7271851657133,-0.891848532424774,-555.540124713647,-1135.69928312543,-1146.71425080075,-1143.56364010661,-1125.53015965063,-1149.2859839364,-1136.79227457952
646,-14.7741515265952,115.324782415235,130.09893394183,-122.711858178533,-7.38707576329762,-1181.87013624434,-2493.83920643051,-2485.0297739658,-2503.49630293041,-2484.16377195212,-2498.74992899245,-2502.54765806082
647,-3.75348948372994,240.721022233192,244.474511716922,-242.597766975057,-1.87674474186497,-2449.2897441918,-5143.05400010053,-5139.58407895497,-5138.12378766589,-5133.67260223761,-5147.52859487614,-5153.56545652481
648,3.02172448541387,301.994452952407,298.972728466993,-300.4835907097,1.51086224270693,-6505.19370741707,-13309.3601433011,-13337.0921520311,-13305.1375932231,-13296.3000821095,-13321.4231464767,-13319.6592910717
649,12.7467896515736,495.930226326862,483.183436675288,-489.556831501075,6.37339482578682,-2775.0209767457,-6033.22539016668,-6034.86575628535,-6033.50115230356,-6022.03925322898,-6031.55393269824,-6037.99066335312
650,5.38169806005317,179.292363018205,173.910664958152,-176.601513988178,2.69084903002658,-1888.3187987992,-3950.54826255655,-3939.8898212034,-3943.08844662164,-3937.2737439975,-3963.48641846489,-3951.40948988055
651,-1.53023835550994,39.7571529082488,41.2873912637588,-40.5222720860038,-0.765119177754968,-1386.96641237664,-2815.22021601704,-2800.78037067875,-2800.1073277088,-2809.85077657425,-2810.42318339198,-2799.8980570852
652,10.1273614762176,-3.05298541265074,-13.1803468888684,8.11666615075956,5.06368073810881,-1069.69687413274,-2126.21340137662,-2127.17815212958,-2129.83329605332,-2120.79934173683,-2118.35188450973,-2122.04831659797
653,-9.13755722760106,-3.54238332781824,5.59517389978282,-1.02639528598229,-4.56877861380053,-839.224929865115,-1684.04503363001,-1682.8937445817,-1703.49417722138,-1686.0482640964,-1689.00495107748,-1697.73114938536
654,-2.2018038960814,-11.7517800190835,-9.54997612300213,10.6508780710428,-1.1009019480407,-704.197926980094,-1398.84587783719,-1410.88075405781,-1396.06386122649,-1409.39286466449,-1408.4113639956,-1405.35740902252
