sep=, 
EKG Messung vom 28.01.2019 18.52.23
gemessen mit dem EKG Dongle der Hochschule Luzern BAT HS18

 
 , Lead1, Lead2, Lead3, aVR, aVL, aVF, V1, V2, V3, V4, V5, V6
0,-55.9304931696097,167444.225417062,167500.155910232,-167472.190663647,-27.9652465848048,83750.077955116,0,0,0,0,0,0
1,-154.057275425293,461151.678964865,461305.73624029,-461228.707602577,-77.0286377126467,230652.868120145,0,0,0,0,0,0
2,-315.292220832314,943811.617472744,944126.909693576,-943969.26358316,-157.646110416157,472063.454846788,0,0,0,0,0,0
3,-582.140709326835,1741785.3942585,1742367.53496782,-1742076.46461316,-291.070354663418,871183.767483912,0,0,0,0,0,0
4,-1075.67176237935,3217710.03805442,3218785.7098168,-3218247.87393561,-537.835881189676,1609392.8549084,0,0,0,0,0,0
5,-2631.68434881885,7873975.95360044,7876607.63794926,-7875291.79577485,-1315.84217440942,3938303.81897463,0,0,0,0,0,0
6,-1077.98175657215,3217720.082565,3218798.06432158,-3218259.07344329,-538.990878286073,1609399.03216079,0,0,0,0,0,0
7,-585.890693368856,1741758.78406233,1742344.6747557,-1742051.72940901,-292.945346684428,871172.337377849,0,0,0,0,0,0
8,-327.408995387028,943452.592126811,943780.001122198,-943616.296624504,-163.704497693514,471890.000561099,0,0,0,0,0,0
9,-157.870409915224,460867.891015547,461025.761425462,-460946.826220505,-78.9352049576119,230512.880712731,0,0,0,0,0,0
10,-53.5994782269408,167436.707494921,167490.306973148,-167463.507234034,-26.7997391134704,83745.1534865738,0,0,0,0,0,0
11,-7.02000250393758,-33.5646084560722,-26.5446059521346,30.0546072041034,-3.51000125196879,-13.2723029760673,0,0,0,0,0,0
12,-0.693304436223116,53.0177088874625,53.7110133236856,-53.3643611055741,-0.346652218111558,26.8555066618428,0,0,0,0,0,0
13,-13.6191706567188,179.383836560097,193.003007216816,-186.193421888456,-6.80958532835939,96.5015036084078,0,0,0,0,0,0
14,5.33194897187059,89.5385120130959,84.2065630412253,-86.8725375271606,2.66597448593529,42.1032815206127,0,0,0,0,0,0
15,13.7907649413391,479.575420614739,465.7846556734,-472.68003814407,6.89538247066957,232.8923278367,0,0,0,0,0,0
16,2.98273143256665,231.098139874957,228.115408442391,-229.606774158674,1.49136571628333,114.057704221195,0,0,0,0,0,0
17,0.754441840545041,472.294405543711,471.539963703166,-471.917184623439,0.377220920272521,235.769981851583,0,0,0,0,0,0
18,-2.38159663652186,11.4167053615674,13.7983019980893,-12.6075036798284,-1.19079831826093,6.89915099904465,0,0,0,0,0,0
19,7.41058267068001,-82.7011634162336,-90.1117460869136,86.4064547515736,3.70529133534001,-45.0558730434568,0,0,0,0,0,0
20,-1.42753665064811,-40.3423523016099,-38.9148156509618,39.6285839762859,-0.713768325324054,-19.4574078254809,0,0,0,0,0,0
21,-11.0185032692971,66.4003047791775,77.4188080484746,-71.9095564138261,-5.50925163464854,38.7094040242373,0,0,0,0,0,0
22,5.79148774256464,-55.0601775488467,-60.8516652914113,57.955921420129,2.89574387128232,-30.4258326457057,0,0,0,0,0,0
23,-15.2912642068113,-71.1496770304511,-55.8584128236398,63.5040449270455,-7.64563210340566,-27.9292064118199,0,0,0,0,0,0
24,-1.49132312397705,-103.250259130669,-101.758936006692,102.504597568681,-0.745661561988527,-50.8794680033461,0,0,0,0,0,0
25,0.508386768982746,46.0279653085454,45.5195785395626,-45.773771924054,0.254193384491373,22.7597892697813,0,0,0,0,0,0
26,12.9549049496418,117.368064402835,104.413159453194,-110.890611928015,6.47745247482089,52.2065797265968,0,0,0,0,0,0
27,-1.07644971308764,115.569748306822,116.646198019909,-116.107973163365,-0.53822485654382,58.3230990099546,0,0,0,0,0,0
28,-1.04073804715881,469.539752722427,470.580490769586,-470.060121746006,-0.520369023579406,235.290245384793,0,0,0,0,0,0
29,9.20329021228827,888.441573964024,879.238283751736,-883.83992885788,4.60164510614413,439.619141875868,0,0,0,0,0,0
30,-10.3992028670618,432.119416936854,442.518619803916,-437.319018370385,-5.19960143353092,221.259309901958,0,0,0,0,0,0
31,2.58556703323848,77.6174750764621,75.0319080432237,-76.3246915598429,1.29278351661924,37.5159540216118,0,0,0,0,0,0
32,-4.70502125239,338.540747382271,343.245768634661,-340.893258008466,-2.352510626195,171.62288431733,0,0,0,0,0,0
33,5.39334910959587,84.8276849324175,79.4343358228216,-82.1310103776195,2.69667455479794,39.7171679114108,0,0,0,0,0,0
34,-2.39434975353652,-94.9399006768363,-92.5455509232997,93.742725800068,-1.19717487676826,-46.2727754616499,0,0,0,0,0,0
35,6.36364915978629,9.85867051151581,3.49502135172952,-6.67684593162267,3.18182457989315,1.74751067586476,0,0,0,0,0,0
36,-12.5377266273717,-127.831184696115,-115.293458068743,121.562321382429,-6.26886331368587,-57.6467290343717,0,0,0,0,0,0
37,-1.82070284380461,170.762645781535,172.58334862534,-171.672997203437,-0.910351421902305,86.2916743126698,0,0,0,0,0,0
38,-3.19249906833284,155.836471904186,159.028970972518,-157.432721438352,-1.59624953416642,79.5144854862592,0,0,0,0,0,0
39,-2.25764218092081,42.2607372225029,44.5183794034238,-43.3895583129633,-1.12882109046041,22.2591897017119,0,0,0,0,0,0
40,4.21210271146265,213.355532098212,209.14342938675,-211.249480742481,2.10605135573132,104.571714693375,0,0,0,0,0,0
41,0.294252897088882,20.9478923186543,20.6536394215655,-20.8007658701099,0.147126448544441,10.3268197107827,0,0,0,0,0,0
42,-5.06587218996719,23.3629509193415,28.4288231093087,-25.8958870143251,-2.5329360949836,14.2144115546544,0,0,0,0,0,0
43,9.01585203316063,83.5500382138125,74.5341861806519,-79.0421121972322,4.50792601658031,37.2670930903259,0,0,0,0,0,0
44,10.5460835510166,37.4850530576368,26.9389695066202,-32.2120112821285,5.27304177550832,13.4694847533101,0,0,0,0,0,0
45,-1.87981355510419,14.884925555496,16.7647391106002,-15.8248323330481,-0.939906777552096,8.3823695553001,0,0,0,0,0,0
46,-1.26658549366402,61.5077490263793,62.7743345200433,-62.1410417732113,-0.633292746832012,31.3871672600217,0,0,0,0,0,0
47,-15.4939838136779,-116.733844241273,-101.239860427595,108.986852334434,-7.74699190683896,-50.6199302137975,0,0,0,0,0,0
48,0.861418627144303,-60.9987332099117,-61.860151837056,61.4294425234839,0.430709313572152,-30.930075918528,0,0,0,0,0,0
49,-3.15831857599551,-59.0296068799798,-55.8712883039843,57.4504475919821,-1.57915928799775,-27.9356441519922,0,0,0,0,0,0
50,1.56742085394217,-149.32624652778,-150.893667381722,150.109956954751,0.783710426971084,-75.4468336908612,0,0,0,0,0,0
51,-1.26417629790376,5.08936588352663,6.35354218143038,-5.7214540324785,-0.63208814895188,3.17677109071519,0,0,0,0,0,0
52,7.86859145050403,334.011100535252,326.142509084748,-330.07680481,3.93429572525201,163.071254542374,0,0,0,0,0,0
53,-9.89958008410758,184.553140769247,194.452720853355,-189.502930811301,-4.94979004205379,97.2263604266773,0,0,0,0,0,0
54,3.95198912519845,12.8109771238524,8.8589879986539,-10.8349825612531,1.97599456259923,4.42949399932695,0,0,0,0,0,0
55,5.02933840983314,-17.6915861534944,-22.7209245633276,20.206255358411,2.51466920491657,-11.3604622816638,0,0,0,0,0,0
56,-0.721845738618867,-161.215865902341,-160.494020163722,160.854943033031,-0.360922869309434,-80.2470100818609,0,0,0,0,0,0
57,-0.577756158949342,229.991290301492,230.569046460441,-230.280168380967,-0.288878079474671,115.284523230221,0,0,0,0,0,0
58,2.82089779776288,-165.1457072146,-167.966605012363,166.556156113482,1.41044889888144,-83.9833025061816,0,0,0,0,0,0
59,-1.49114105262561,-177.849592948478,-176.358451895852,177.104022422165,-0.745570526312804,-88.1792259479262,0,0,0,0,0,0
60,-1.61162257546675,-137.540649099799,-135.929026524333,136.734837812066,-0.805811287733377,-67.9645132621663,0,0,0,0,0,0
61,2.37352409359301,99.3506521748204,96.9771280812274,-98.1638901280239,1.1867620467965,48.4885640406137,0,0,0,0,0,0
62,5.06872988512623,-44.0247942263377,-49.0935241114639,46.5591591689008,2.53436494256312,-24.546762055732,0,0,0,0,0,0
63,-3.52568028427777,-122.321248542634,-118.795568258356,120.558408400495,-1.76284014213888,-59.397784129178,0,0,0,0,0,0
64,10.070952652517,-163.087092017784,-173.158044670301,168.122568344043,5.0354763262585,-86.5790223351505,0,0,0,0,0,0
65,-7.04024774281424,-500.899241732928,-493.858993990114,497.379117861521,-3.52012387140712,-246.929496995057,0,0,0,0,0,0
66,-1.97375320165884,-102.231193053856,-100.257439852197,101.244316453027,-0.986876600829419,-50.1287199260987,0,0,0,0,0,0
67,1.8817849009356,86.9465761468746,85.064791245939,-86.0056836964068,0.9408924504678,42.5323956229695,0,0,0,0,0,0
68,2.54579630837543,76.0245816461393,73.4787853377638,-74.7516834919516,1.27289815418771,36.7393926688819,0,0,0,0,0,0
69,-8.60181671826285,13.8044958625978,22.4063125808607,-18.1054042217293,-4.30090835913143,11.2031562904303,0,0,0,0,0,0
70,6.45723962422926,-45.1714561934641,-51.6286958176934,48.4000760055787,3.22861981211463,-25.8143479088467,0,0,0,0,0,0
71,2.71321006552898,-90.544970570365,-93.258180635894,91.9015756031295,1.35660503276449,-46.629090317947,0,0,0,0,0,0
72,7.38221717809211,37.2874393249222,29.9052221468301,-33.5963307358761,3.69110858904605,14.952611073415,0,0,0,0,0,0
73,-11.8599515755195,15.09835404763,26.9583056231495,-21.0283298353897,-5.92997578775976,13.4791528115747,0,0,0,0,0,0
74,-4.93063942817389,-58.2155074166949,-53.284867988521,55.7501877026079,-2.46531971408695,-26.6424339942605,0,0,0,0,0,0
75,-3.46811505270307,46.7852850196359,50.253400072339,-48.5193425459875,-1.73405752635153,25.1267000361695,0,0,0,0,0,0
76,2.85316989081912,108.068484481075,105.215314590256,-106.641899535665,1.42658494540956,52.6076572951279,0,0,0,0,0,0
77,-5.61001610063249,30.4673230897752,36.0773391904077,-33.2723311400914,-2.80500805031625,18.0386695952038,0,0,0,0,0,0
78,2.68092695763335,42.3109138146683,39.629986857035,-40.9704503358516,1.34046347881667,19.8149934285175,0,0,0,0,0,0
79,10.7737705713953,-285.172707443533,-295.946478014928,290.559592729231,5.38688528569764,-147.973239007464,0,0,0,0,0,0
80,-8.61071613672539,-49.6973975324363,-41.0866813957109,45.3920394640736,-4.30535806836269,-20.5433406978555,0,0,0,0,0,0
81,3.16391844095779,-104.846865755098,-108.010784196056,106.428824975577,1.58195922047889,-54.0053920980281,0,0,0,0,0,0
82,-1.28748593642376,-82.7161180029798,-81.428632066556,82.0723750347679,-0.643742968211882,-40.714316033278,0,0,0,0,0,0
83,8.41465721229906,82.1292904994043,73.7146332871052,-77.9219618932548,4.20732860614953,36.8573166435526,0,0,0,0,0,0
84,-0.623451721970923,86.5299269349489,87.1533786569198,-86.8416527959344,-0.311725860985462,43.5766893284599,0,0,0,0,0,0
85,-5.98998557741288,-320.305325940455,-314.315340363042,317.310333151749,-2.99499278870644,-157.157670181521,0,0,0,0,0,0
86,-9.46726622738061,-131.595507483435,-122.128241256054,126.861874369744,-4.7336331136903,-61.064120628027,0,0,0,0,0,0
87,-5.86881024402101,-129.422491089383,-123.553680845362,126.488085967372,-2.9344051220105,-61.7768404226808,0,0,0,0,0,0
88,7.79375858721323,-25.2493113892851,-33.0430699764984,29.1461906828918,3.89687929360662,-16.5215349882492,0,0,0,0,0,0
89,18.372551244247,63.5136216489773,45.1410704047303,-54.3273460268538,9.1862756221235,22.5705352023651,0,0,0,0,0,0
90,-2.13087959415861,9.27771974372445,11.4085993378831,-10.3431595408038,-1.06543979707931,5.70429966894153,0,0,0,0,0,0
91,4.78160405287053,3.53305988633656,-1.24854416653397,-1.14225785990129,2.39080202643527,-0.624272083266987,0,0,0,0,0,0
92,-2.4844332523644,-3.30782508419361,-0.823391831829213,2.06560845801141,-1.2422166261822,-0.411695915914606,0,0,0,0,0,0
93,-0.155819187290035,18.9170426293276,19.0728618166177,-18.9949522229726,-0.0779095936450176,9.53643090830883,0,0,0,0,0,0
94,-9.55373978783609,46.7650818115217,56.3188215993578,-51.5419517054397,-4.77686989391805,28.1594107996789,0,0,0,0,0,0
95,-3.14033846292295,154.8632640508,158.003602513723,-156.433433282262,-1.57016923146148,79.0018012568617,0,0,0,0,0,0
96,-3.31377967778826,-41.4655982684635,-38.1518185906752,39.8087084295694,-1.65688983889413,-19.0759092953376,0,0,0,0,0,0
97,-7.21778362247278,-138.089270409575,-130.871486787102,134.480378598339,-3.60889181123639,-65.4357433935511,0,0,0,0,0,0
98,3.18374352194951,-41.3711179622624,-44.5548614842119,42.9629897232371,1.59187176097475,-22.2774307421059,0,0,0,0,0,0
99,10.9651601345104,-13.6279157642857,-24.5930758987961,19.1104958315409,5.48258006725519,-12.296537949398,0,0,0,0,0,0
100,-3.56953552717459,-18.7572958674573,-15.1877603402827,16.97252810387,-1.7847677635873,-7.59388017014135,0,0,0,0,0,0
101,6.36197544095921,38.1946528217813,31.8326773808221,-35.0136651013017,3.18098772047961,15.9163386904111,0,0,0,0,0,0
102,-3.7365634656453,-96.2903425127442,-92.5537790470989,94.4220607799216,-1.86828173282265,-46.2768895235495,0,0,0,0,0,0
103,0.468296187435044,-97.6357861185388,-98.1040823059739,97.8699342122563,0.234148093717522,-49.0520411529869,0,0,0,0,0,0
104,-8.61993403735687,14.7649526343157,23.3848866716726,-19.0749196529941,-4.30996701867844,11.6924433358363,0,0,0,0,0,0
105,-10.5884081487602,-66.9603776879667,-56.3719695392065,61.6661736135866,-5.2942040743801,-28.1859847696032,0,0,0,0,0,0
106,12.5207312500861,-216.750458281196,-229.271189531282,223.010823906239,6.26036562504305,-114.635594765641,0,0,0,0,0,0
107,-5.0937686044781,45.8258461473451,50.9196147518232,-48.3727304495842,-2.54688430223905,25.4598073759116,0,0,0,0,0,0
108,15.8376261678641,-135.288860581408,-151.126486749272,143.20767366534,7.91881308393204,-75.5632433746359,0,0,0,0,0,0
109,1.16482061159331,-73.4568868154602,-74.6217074270535,74.0392971212568,0.582410305796657,-37.3108537135267,0,0,0,0,0,0
110,-4.7957518317271,-53.2460679326032,-48.4503161008761,50.8481920167396,-2.39787591586355,-24.225158050438,0,0,0,0,0,0
111,-11.3716004480084,-165.80148202664,-154.429881578631,160.115681802636,-5.6858002240042,-77.2149407893157,0,0,0,0,0,0
112,-4.31023621390341,-46.2761904090876,-41.9659541951842,44.1210723021359,-2.1551181069517,-20.9829770975921,0,0,0,0,0,0
113,-1.91495347517775,91.360168842948,93.2751223181258,-92.3176455805369,-0.957476737588877,46.6375611590629,0,0,0,0,0,0
114,-0.729737990244757,244.440538794093,245.170276784338,-244.805407789216,-0.364868995122379,122.585138392169,0,0,0,0,0,0
115,6.31193442267249,428.35354545369,422.041611031018,-425.197578242354,3.15596721133625,211.020805515509,0,0,0,0,0,0
116,1.27446512578172,177.744995088346,176.470529962564,-177.107762525455,0.637232562890858,88.2352649812819,0,0,0,0,0,0
117,-3.98673984780908,48.3992586385575,52.3859984863666,-50.3926285624621,-1.99336992390454,26.1929992431833,0,0,0,0,0,0
118,-7.94890350577771,-36.5112448272412,-28.5623413214635,32.5367930743523,-3.97445175288885,-14.2811706607317,0,0,0,0,0,0
119,10.5713396057836,-22.3646263323899,-32.9359659381735,27.6502961352817,5.28566980289179,-16.4679829690867,0,0,0,0,0,0
120,4.12848623632453,-80.7342034358298,-84.8626896721544,82.7984465539921,2.06424311816227,-42.4313448360772,0,0,0,0,0,0
121,4.36113650724292,28.0075331528788,23.6463966456358,-25.8269648992573,2.18056825362146,11.8231983228179,0,0,0,0,0,0
122,-1.30604056021548,-56.6618164148822,-55.3557758546667,56.0087961347745,-0.653020280107739,-27.6778879273334,0,0,0,0,0,0
123,2.60800399686559,-61.7241895477928,-64.3321935446584,63.0281915462256,1.3040019984328,-32.1660967723292,0,0,0,0,0,0
124,10.6039666825673,-14.9143991375458,-25.5183658201131,20.2163824788295,5.30198334128363,-12.7591829100566,0,0,0,0,0,0
125,0.30416488321498,91.9119202346192,91.6077553514042,-91.7598377930117,0.15208244160749,45.8038776757021,0,0,0,0,0,0
126,2.08235168692772,-96.1048685313435,-98.1872202182713,97.1460443748074,1.04117584346386,-49.0936101091356,0,0,0,0,0,0
127,1.31449289410375,-115.051086050778,-116.365578944882,115.70833249783,0.657246447051875,-58.1827894724411,0,0,0,0,0,0
128,-6.90155634918483,-460.821689103439,-453.920132754254,457.370910928847,-3.45077817459241,-226.960066377127,0,0,0,0,0,0
129,-2.90241676208097,-295.0815162457,-292.179099483619,293.63030786466,-1.45120838104049,-146.08954974181,0,0,0,0,0,0
130,0.829355429217685,-114.873109854001,-115.702465283219,115.28778756861,0.414677714608843,-57.8512326416094,0,0,0,0,0,0
131,-7.76504806350567,-43.4173826040642,-35.6523345405585,39.5348585723114,-3.88252403175284,-17.8261672702793,0,0,0,0,0,0
132,4.79142366652377,24.9507293412753,20.1593056747515,-22.5550175080134,2.39571183326188,10.0796528373758,0,0,0,0,0,0
133,7.04123766513658,-89.711364502029,-96.7526021671656,93.2319833345973,3.52061883256829,-48.3763010835828,0,0,0,0,0,0
134,-7.68447246146388,-5.12269182829186,2.56178063317202,1.28045559755992,-3.84223623073194,1.28089031658601,0,0,0,0,0,0
135,4.08778709443868,209.346173380851,205.258386286412,-207.302279833631,2.04389354721934,102.629193143206,0,0,0,0,0,0
136,8.70030849133036,-29.1525780342636,-37.8528865255939,33.5027322799288,4.35015424566518,-18.926443262797,0,0,0,0,0,0
137,-3.75788293028018,25.1621064857754,28.9199894160556,-27.0410479509155,-1.87894146514009,14.4599947080278,0,0,0,0,0,0
138,-15.4525383943692,115.509557343466,130.962095737836,-123.235826540651,-7.72626919718459,65.4810478689178,0,0,0,0,0,0
139,8.04687685350655,-60.2858918607817,-68.3327687142883,64.309330287535,4.02343842675327,-34.1663843571441,0,0,0,0,0,0
140,-4.77751482080203,-60.9861553169903,-56.2086404961883,58.5973979065893,-2.38875741040101,-28.1043202480942,0,0,0,0,0,0
141,-4.40413492333028,23.3885936375882,27.7927285609185,-25.5906610992533,-2.20206746166514,13.8963642804592,0,0,0,0,0,0
142,0.207556161331013,-55.5489232903929,-55.7564794517239,55.6527013710584,0.103778080665506,-27.8782397258619,0,0,0,0,0,0
143,-1.52232028063736,-14.9237647760601,-13.4014444954228,14.1626046357414,-0.76116014031868,-6.70072224771138,0,0,0,0,0,0
144,-0.603819411509903,-180.480161710671,-179.876342299161,180.178252004916,-0.301909705754952,-89.9381711495807,0,0,0,0,0,0
145,2.93572164527723,-33.8646106037486,-36.8003322490258,35.3324714263872,1.46786082263861,-18.4001661245129,0,0,0,0,0,0
146,5.64632378928945,13.8160712064127,8.16974741712329,-10.992909311768,2.82316189464473,4.08487370856164,0,0,0,0,0,0
147,4.693797235901,-62.9424463275354,-67.6362435634364,65.2893449454859,2.3468986179505,-33.8181217817182,0,0,0,0,0,0
148,-5.90633325005183,-30.4812211672834,-24.5748879172315,27.5280545422575,-2.95316662502592,-12.2874439586158,0,0,0,0,0,0
149,2.6886534683581,2.80171921625151,0.113065747893415,-1.45739248207246,1.34432673417905,0.0565328739467077,0,0,0,0,0,0
150,2.5406731684343,-235.236707562115,-237.777380730549,236.507044146332,1.27033658421715,-118.888690365275,0,0,0,0,0,0
151,4.88404121127678,-162.288468524086,-167.172509735363,164.730489129724,2.44202060563839,-83.5862548676814,0,0,0,0,0,0
152,9.99460859227111,-50.2710512642516,-60.2656598565227,55.2683555603871,4.99730429613555,-30.1328299282613,0,0,0,0,0,0
153,-6.59063033014536,79.0438757137163,85.6345060438616,-82.3391908787889,-3.29531516507268,42.8172530219308,0,0,0,0,0,0
154,-9.46554663576535,152.669331489888,162.134878125653,-157.40210480777,-4.73277331788267,81.0674390628265,0,0,0,0,0,0
155,-7.27660635442589,22.7927214566153,30.0693278110411,-26.4310246338282,-3.63830317721295,15.0346639055206,0,0,0,0,0,0
156,0.384766814124305,254.714528308745,254.32976149462,-254.522144901683,0.192383407062152,127.16488074731,0,0,0,0,0,0
157,3.11699224752374,86.6155284438282,83.4985361963045,-85.0570323200664,1.55849612376187,41.7492680981522,0,0,0,0,0,0
158,1.30064801711706,-122.982314107794,-124.282962124911,123.632638116353,0.650324008558528,-62.1414810624556,0,0,0,0,0,0
159,3.95053776033456,49.5777807935665,45.6272430332319,-47.6025119133992,1.97526888016728,22.813621516616,0,0,0,0,0,0
160,-1.29028400816605,-99.8061334830418,-98.5158494748757,99.1609914789587,-0.645142004083027,-49.2579247374379,0,0,0,0,0,0
161,0.3711077979533,-11.7242651477281,-12.0953729456814,11.9098190467048,0.18555389897665,-6.04768647284072,0,0,0,0,0,0
162,5.01836944310344,-192.099224600679,-197.117594043782,194.608409322231,2.50918472155172,-98.5587970218912,0,0,0,0,0,0
163,-3.45978499145713,-150.738262388128,-147.27847739667,149.008369892399,-1.72989249572856,-73.6392386983352,0,0,0,0,0,0
164,-1.78286558014224,-41.9036087938875,-40.1207432137453,41.0121760038164,-0.891432790071121,-20.0603716068727,0,0,0,0,0,0
165,9.24795407045167,-286.704467454576,-295.952421525028,291.328444489802,4.62397703522583,-147.976210762514,0,0,0,0,0,0
166,8.15321672239224,-71.125848428841,-79.2790651512332,75.2024567900371,4.07660836119612,-39.6395325756166,0,0,0,0,0,0
167,5.94261487640324,-109.70870724009,-115.651322116493,112.680014678292,2.97130743820162,-57.8256610582466,0,0,0,0,0,0
168,-14.1644568160991,-163.430936104531,-149.266479288432,156.348707696481,-7.08222840804956,-74.6332396442158,0,0,0,0,0,0
169,-11.6230910284212,-162.141091204452,-150.518000176031,156.329545690242,-5.81154551421059,-75.2590000880155,0,0,0,0,0,0
170,-8.80445538205095,-123.686383920256,-114.881928538205,119.284156229231,-4.40222769102547,-57.4409642691026,0,0,0,0,0,0
171,3.74160722238594,69.0266379711975,65.2850307488116,-67.1558343600045,1.87080361119297,32.6425153744058,0,0,0,0,0,0
172,0.251715504709864,-46.2414017988485,-46.4931173035584,46.3672595512035,0.125857752354932,-23.2465586517792,0,0,0,0,0,0
173,-0.318961949786171,43.5588515636628,43.8778135134489,-43.7183325385558,-0.159480974893086,21.9389067567245,0,0,0,0,0,0
174,-0.796804071724182,177.415272282669,178.212076354394,-177.813674318531,-0.398402035862091,89.1060381771968,0,0,0,0,0,0
175,-0.120261019008467,199.035055325192,199.1553163442,-199.095185834696,-0.0601305095042335,99.5776581721002,0,0,0,0,0,0
176,-8.01105064031435,177.931569976994,185.942620617308,-181.937095297151,-4.00552532015718,92.9713103086542,0,0,0,0,0,0
177,6.63015676988289,165.27472591991,158.644569150027,-161.959647534968,3.31507838494144,79.3222845750133,0,0,0,0,0,0
178,5.34361279639415,85.304362259456,79.9607494630618,-82.6325558612589,2.67180639819708,39.9803747315309,0,0,0,0,0,0
179,7.57879966709879,-86.443549841264,-94.0223495083628,90.2329496748134,3.7893998335494,-47.0111747541814,0,0,138413.917598219,138341.054218616,138069.500089758,138002.396489939
180,-5.95919099802268,48.6369943199679,54.5961853179906,-51.6165898189793,-2.97959549901134,69087.9996265289,138121.40306774,138176.164282307,381187.054679312,380986.320006487,380238.142010403,380053.638190798
181,13.4481562856527,50.0053192111955,36.5571629255428,-43.2812410683691,6.72407814282633,190207.652121112,380378.747079298,380529.800630889,780125.965187146,779714.742766889,778183.456481367,777805.972891643
182,6.90768090600614,-33.9103822987818,-40.8180632047879,37.3642227517848,3.45384045300307,389216.031932843,778472.88192889,778782.201465932,1439678.07249549,1438919.27186524,1436093.0364326,1435396.61549312
183,5.28518216428347,68.2314810454845,62.9462988812011,-65.5888899633428,2.64259108214173,718344.592876444,1436626.23945401,1437197.06422872,2659583.48792865,2658181.66624369,2652960.38614715,2651674.01506413
184,-1.46246624999912,-75.4522997571039,-73.9898335071048,74.7210666321043,-0.731233124999562,1326935.48750041,2653944.96483434,2654999.50039221,6508327.20020639,6504897.37904908,6492122.27793987,6488972.63514738
185,-12.8497997723171,69.2993338235246,82.1491335958417,-75.7242337096832,-6.42489988615853,3247310.02311621,6494537.89709883,6497117.13268481,2658716.14417127,2657308.51914816,2652076.96811307,2650802.14792987
186,3.78603508151718,-25.0623118004296,-28.8483468819468,26.9553293411882,1.89301754075859,1326486.325821,2653001.49998888,2654064.32899562,1438351.66600938,1437580.11888495,1434753.55632203,1434060.82991548
187,-0.577350097591989,199.901744898962,200.479094996554,-200.190419947758,-0.288675048795994,717777.923436701,1435355.3677784,1435928.22924418,778645.941857386,778240.363370149,776699.529985724,776330.481130643
188,-0.730212267080788,103.528803924593,104.259016191674,-103.893910058134,-0.365106133540394,388507.65157383,776911.044131468,777217.767295357,379521.972387541,379306.363145922,378556.839933985,378378.959251227
189,-7.07914557136246,139.761481509515,146.840627080877,-143.301054295196,-3.53957278568123,189412.260310544,378677.679994007,378833.637143462,136673.079613026,136578.977835293,136315.712762933,136249.048510764
190,-21.7209625621908,-35.6740774959326,-13.9531149337417,24.8135962148372,-10.8604812810954,68172.131358495,136358.215831924,136413.96804139,-1771.5616286204,-1773.57968995906,-1765.87033452754,-1759.79574042067
191,-2.60335440468043,-24.8315158229379,-22.2281614182575,23.5298386205977,-1.30167720234022,-892.501114973871,-1762.77406852948,-1761.12319042566,-1750.24646584544,-1760.99436307341,-1760.20064615415,-1781.2132008113
192,7.45490865735337,116.079615632887,108.624706975534,-112.35216130421,3.72745432867669,-831.970327940886,-1772.56536285731,-1777.6742506052,-1776.08320451237,-1777.14211325574,-1766.58466167102,-1773.57449122463
193,8.79491853981745,172.998262720183,164.203344180365,-168.600803450274,4.39745926990872,-806.734464798225,-1777.67227377681,-1781.96303257975,-1790.18342123981,-1789.73410248736,-1789.42623817761,-1794.628511519
194,13.8856517201639,-14.3833904073108,-28.2690421274747,21.3262162673927,6.94282586008194,-938.389635285668,-1848.51022844386,-1846.06488286133,-1848.09892561537,-1833.73875823966,-1858.88726049921,-1841.79094793403
195,4.43439975418733,-86.3834627838805,-90.8178625380679,88.6006626609742,2.21719987709366,-987.862135955962,-1884.90640937386,-1886.00454489433,-1879.78396579719,-1870.07471236709,-1879.91944326746,-1879.69056499546
196,10.9889880609699,-165.957198496413,-176.946186557383,171.451692526898,5.49449403048493,-1077.4266817071,-1977.90717685682,-1977.6580565809,-1981.83516193519,-1963.71802418254,-1975.56583460199,-1973.00952147099
197,-1.03850649410742,-93.0047304982727,-91.9662240041653,92.485477251219,-0.519253247053712,-1035.2993564374,-1978.63248887064,-1980.90993465355,-1973.82929747752,-1971.64365664695,-1978.16609763115,-1971.59430590287
198,-12.6374521067773,-106.827223830944,-94.1897717241663,100.508497777555,-6.31872605338867,-1043.33486643858,-1992.479961153,-1995.76257761993,-1981.37498540807,-1988.79413552026,-1996.81518454765,-1999.34790572157
199,-1.74010165221989,58.9238837959419,60.6639854481618,-59.7939346220519,-0.870050826109946,-927.133086146336,-1914.93015774083,-1926.57739101283,-1920.5431346499,-1917.09451241125,-1922.61469493192,-1921.3498351094
200,-10.1728581276257,-110.814397195441,-100.641539067816,105.727968131629,-5.08642906381283,-1023.27478441305,-1945.90802975828,-1938.87897518621,-1941.21750558421,-1945.04691006723,-1945.12311735057,-1944.10996098511
201,6.55254193433211,-15.7536474334775,-22.3061893678096,19.0299184006435,3.27627096716606,-979.864152974726,-1937.42211658164,-1942.80247320252,-1933.35425892033,-1945.96376963181,-1937.72980053624,-1942.08506836891
202,-0.821149916766444,186.353834328038,187.174984244804,-186.764409286421,-0.410574958383222,-844.730785911495,-1876.6365560678,-1880.99063014236,-1875.97991100399,-1883.12220235879,-1897.34889617987,-1882.71286249609
203,-3.31609354540706,94.4342598860967,97.7503534315038,-96.0923066588002,-1.65804677270353,-939.418621957899,-1976.5875973473,-1971.09771810906,-1954.88627940381,-1965.83235890779,-1965.01030304356,-1977.64504661108
204,6.25907934116549,38.9714079521946,32.7123286110291,-35.8418682816118,3.12953967058274,-969.289793274758,-1971.29191516055,-1972.58614600438,-1979.58897673525,-1955.4733805134,-1970.40715017868,-1966.75923407951
205,1.75593060432584,45.1533069595462,43.3973763552203,-44.2753416573833,0.87796530216292,-953.186286613971,-1949.76994958316,-1958.26672135777,-1941.34671048162,-1946.50263021584,-1950.29087179434,-1953.68641665147
206,-14.572812564671,56.8790113039722,71.4518238686433,-64.1654175863077,-7.28640628233552,-942.17370814718,-1955.799240163,-1971.56292511645,-1954.19159661661,-1949.18679810985,-1943.58247408774,-1960.24944684579
207,1.41335042365245,110.16006152,108.746711096348,-109.453386308174,0.706675211826223,-923.15803379954,-1955.06277869543,-1954.48027326254,-1968.70353325771,-1961.73793815789,-1956.66768676444,-1959.35463678214
208,3.53327178198379,110.174216951535,106.640945169551,-108.407581060543,1.76663589099189,-911.551129845378,-1929.74320486031,-1931.2315903476,-1932.63826383982,-1942.06954314947,-1937.42011752818,-1928.26175113313
209,4.05186581294402,-53.5276595644245,-57.5795253773686,55.5535924708965,2.02593290647201,-1050.49621372989,-2043.4129020824,-2038.88266612327,-2041.94932336058,-2038.62693330823,-2045.4507625323,-2038.69847381118
210,7.2379483343102,109.088191416347,101.850243082037,-105.469217249192,3.6189741671551,-933.628296786614,-1969.10683665526,-1963.93171525549,-1973.40742280424,-1963.05221780471,-1977.45576050592,-1967.96916758857
211,0.607810838293517,-36.7548407834547,-37.3626516217482,37.0587462026015,0.303905419146759,-1071.19515134541,-2105.02765106907,-2117.76326277922,-2085.14537712204,-2103.91237851864,-2131.41400145137,-2105.02518416388
212,-2.83319972472964,64.3565239685704,67.1897236933,-65.7731238309352,-1.41659986236482,-974.151230465897,-2015.49218462509,-2015.29615088238,-2014.20960442338,-2012.11367273124,-2007.4520367386,-2017.23717840482
213,-7.29118867553188,5.24262800012366,12.5338166756555,-8.8882223378896,-3.64559433776594,-1017.74603273837,-2048.0258821524,-2055.6425025682,-2074.61212077391,-2057.85685041186,-2056.93817832804,-2056.83808177846
214,4.24062002182473,104.193451738247,99.9528317164222,-102.073141727335,2.12031001091236,-984.079043169215,-2068.11091805485,-2054.80106249894,-2058.39074295136,-2060.93433583225,-2060.74925954046,-2066.32501380693
215,-8.59001984357019,379.452339454438,388.042359298008,-383.747349376223,-4.29500992178509,-728.340289324056,-1844.72293794612,-1835.51743881591,-1839.48780309747,-1822.81926811973,-1831.56336064762,-1831.83513568735
216,-3.58108464127872,157.726040756126,161.307125397405,-159.516583076766,-1.79054232063936,-901.886993076318,-1965.08111155004,-1950.51600256859,-1950.17938601653,-1959.74141152066,-1953.10023304218,-1964.11958408868
217,-1.02701165914186,177.42479637725,178.451808036392,-177.938302206821,-0.513505829570931,-878.039176665116,-1934.53016136662,-1949.57289909292,-1941.83116996987,-1931.92713123347,-1933.48374356172,-1955.34857610494
218,-1.12920303407009,-122.158012187516,-121.028809153446,121.593410670481,-0.564601517035044,-1131.15326328755,-2141.27771742165,-2147.82348082482,-2142.0877770705,-2143.11075303951,-2139.80133130439,-2126.73251966396
219,-0.408427102607675,103.500365228276,103.908792330883,-103.70457877958,-0.204213551303837,-979.637328394427,-2063.18344911974,-2060.62890948157,-2066.51931378382,-2073.9228291761,-2071.51948707522,-2074.71365246217
220,1.20742996392073,182.198347707337,180.990917743417,-181.594632725377,0.603714981960366,-1568.70924239744,-3318.40940253829,-3323.76144243332,-3317.05594074537,-3306.12504558303,-3331.08686783674,-3329.72481971415
221,12.2883871558588,268.579744477174,256.291357321315,-262.435550899245,6.1441935779294,-2637.36655678117,-5531.02447088365,-5561.17333207847,-5530.49358107394,-5536.6986211703,-5539.97182808773,-5547.1982544378
222,-16.1766633005464,250.315083353402,266.491746653948,-258.403415003675,-8.08833165027318,-4461.02509593306,-9188.54193852007,-9184.33403610866,-9190.26588055084,-9174.57069249568,-9185.04453405019,-9188.97434677716
223,-0.252557858999353,139.33916967432,139.591727533319,-139.46544860382,-0.126278929499676,-7628.95597002629,-15397.5036675859,-15405.2658564451,-15398.175524022,-15380.2063316453,-15419.3871652409,-15416.0554450348
224,-4.61498351042974,320.655455002736,325.270438513166,-322.962946757951,-2.30749175521487,-13141.5120842882,-26608.2946070896,-26616.6566128099,-26594.1298761477,-26555.689911207,-26630.7930712682,-26621.3755510547
225,6.3900469551736,792.067111937969,785.677064982796,-788.872088460383,3.1950234775868,-30705.7888611876,-62197.254787358,-62208.3628738183,-62132.8013803951,-62114.3007897003,-62232.7061573822,-62216.6586191589
226,4.813182524289,332.595446936873,327.782264412584,-330.188855674729,2.4065912621445,-12578.6397426341,-25485.0617496807,-25497.2830745795,-25465.2806726541,-25470.2464504155,-25500.2421405963,-25495.9484196805
227,-2.33105425233953,93.1713124643138,95.5023667166533,-94.3368395904836,-1.16552712616976,-6880.44678895039,-13856.3959446174,-13867.7256930422,-13850.166138026,-13850.8825463736,-13876.3515358153,-13869.5483198236
228,3.21259437216213,-96.5412576474482,-99.7538520196103,98.1475548335293,1.60629718608106,-3820.46354430936,-7541.1732365991,-7536.30162853794,-7525.2338703959,-7508.33460979327,-7539.01924360689,-7545.8869961763
229,-3.26473973150132,-51.387893410807,-48.1231536793057,49.7555235450563,-1.63236986575066,-1888.68791638479,-3729.25267909028,-3722.66376049226,-3724.6204768091,-3720.81661789419,-3712.55419861543,-3723.30892814402
230,17.9831234701851,-67.4737837215362,-85.4569071917213,76.4653454566287,8.99156173509255,-721.196359177062,-1356.9358111624,-1343.830284397,-1351.86594356457,-1364.08341898452,-1355.1228674509,-1345.93444644188
231,-4.33467309418484,70.0209960726497,74.3556691668346,-72.1883326197421,-2.16733654709242,96.2499642991897,118.144259431545,125.613518558326,130.322108802415,123.128184692498,109.01632894465,129.948581228789
232,-2.13256432733033,-32.0523949007911,-29.9198305734608,30.986112737126,-1.06628216366516,-0.395377386215841,29.1290758010291,31.9616156461125,22.6432532360777,37.9353774081683,32.1168947156111,16.5334302001866
233,-5.30044404353248,-82.5612873708596,-77.2608433273272,79.9110653490934,-2.65022202176624,-29.6539203716966,17.953002583934,-4.16388598518097,-2.50209931581048,1.19838248897577,20.9943741341995,-1.77861257159384
234,9.95881779521005,113.159350046626,103.200532251416,-108.179941149021,4.97940889760503,123.378840315068,143.557148378721,162.772258208599,148.277262137824,156.356425724458,141.775829363673,159.642466852616
235,-0.134948441322194,-17.383726998698,-17.2487785573758,17.3162527780369,-0.0674742206610972,43.2357942176168,103.720366992609,117.094800282386,113.640192287479,117.955163682607,114.152204051585,116.1991650009
236,15.699637791462,61.7976775228744,46.0980397314124,-53.9478586271434,7.849818895731,140.562139758695,235.026239785977,242.970768444968,247.896862237976,235.787673308252,242.649566017615,230.979137130809
237,-2.46763457212364,115.47833234322,117.945966915344,-116.712149629282,-1.23381728606182,217.221733695536,316.497500475729,319.587596458674,321.365144128969,319.031227330706,327.800834778696,307.309218985291
238,-23.6632272209099,-152.984537199693,-129.321309978783,141.152923589238,-11.831613610455,8.43302062821749,146.187351235218,127.281777818775,156.605651563383,146.861377466877,138.228767006804,152.099361993023
239,-5.06113423564238,-121.352404490928,-116.291270255286,118.821837373107,-2.53056711782119,49.6264470395254,215.544164334337,233.16088455607,207.796194299095,220.754119490361,204.51936072798,227.270450249693
240,-5.34400636996725,184.678810326703,190.02281669667,-187.350813511686,-2.67200318498362,290.624260340162,391.225703983655,374.385515390808,374.591124092927,373.586529147608,371.278907315136,386.724946335686
241,3.70957318969886,53.6457806121325,49.9362074224337,-51.7909940172831,1.85478659484943,186.156453455667,322.376699488901,302.102324741805,322.17072543854,302.715255582356,315.902476938703,317.946229638619
242,4.44449699754477,26.2757439063571,21.8312469088123,-24.0534954075847,2.22224849877239,190.064600798287,358.297954687761,354.41444855844,361.327760093991,357.772965177021,364.466385273408,357.223825119465
243,-9.24980758299353,-89.5724634858489,-80.3226559028553,84.9475596943521,-4.62490379149676,102.541244811684,285.405145526223,293.27758083216,277.594473517907,294.573346721212,297.186947353592,282.094255889853
244,-3.1537811908056,-0.959946971241152,2.19383421956445,-0.61694362416165,-1.5768905954028,191.94381896859,381.693803717615,376.421423698193,366.946889414627,381.89029367367,384.446020308358,378.357588368439
245,6.3655299860111,144.212865474139,137.847335488128,-141.030100481134,3.18276499300555,314.912950866637,491.978566245147,504.509047417378,485.474602463335,484.593644590583,478.383014252468,486.468026876799
246,1.40173451288138,-7.4938776306808,-8.89561214356218,8.19474488712149,0.700867256440688,227.392283041903,463.680178227369,462.554746250127,463.344225373527,454.75063275345,468.636887043482,461.181669679267
247,3.9561120531871,46.6447008781543,42.6885888249672,-44.6666448515607,1.97805602659355,258.130937482507,473.573286140047,470.009171376092,484.485219169495,470.17813846076,459.897094021318,480.128833076655
248,-15.1500229401863,70.3856227858341,85.5356457260204,-77.9606342559273,-7.57501147009316,325.216354859716,564.897063993412,562.978188488923,561.966547056858,575.578776974202,576.793416300701,563.663183512399
249,-1.12073229122325,71.7970698036952,72.9178020949184,-72.3574359493068,-0.560366145611624,313.0429903802,553.168178665481,539.619910508598,551.624481445499,561.157763697993,551.502521845832,560.747972543439
250,0.0911123309342656,-24.0406714083801,-24.1317837393144,24.0862275738473,0.0455561654671328,231.696843611033,487.52547096138,509.758962704829,504.460639624507,509.691652693029,496.443327001791,510.563689436036
251,3.53932187033934,-124.034307695722,-127.573629566061,125.803968630891,1.76966093516967,123.527802590936,374.629234747932,383.549852643948,391.137683073379,376.878364215576,383.279503751692,361.011789825832
252,-1.74002941482468,-124.557670031209,-122.817640616384,123.687655323796,-0.870014707412338,76.4362926558242,275.690225928032,277.848852318712,277.001917694433,272.567061091249,269.473807073606,275.542060714419
253,4.74644236150198,-155.144138584757,-159.890580946259,157.517359765508,2.37322118075099,-22.5593962677522,114.771788410755,109.403681852215,100.191406452126,100.211722287175,112.404961883905,100.184368510207
254,0.592064217547886,36.2816274130309,35.6895631954831,-35.985595304257,0.296032108773943,-42.3152690772113,-120.320101349906,-130.438535198162,-126.515782938455,-139.541468905372,-132.415566613228,-133.481964834471
255,-5.4834246483515,-64.1136690152052,-58.6302443668537,61.3719566910295,-2.74171232417575,-455.091777651323,-851.553310935793,-860.330408672744,-867.061144311709,-856.616492873291,-867.510284702905,-857.432637991966
256,-12.4726443482214,-89.9410380771442,-77.4683937289228,83.7047159030335,-6.23632217411068,-1525.28432822019,-2973.10026271146,-2977.66487586452,-2958.37297740357,-2950.64041303567,-2970.03020749617,-2967.98351470125
257,1.76136109151412,-88.2394452793815,-90.0008063708956,89.1201258251385,0.880680545757059,-713.057935612494,-1336.11506485409,-1339.41436636398,-1333.36103399334,-1339.42566980326,-1326.99909069782,-1344.66240583843
258,8.92185592089663,-68.3636169293313,-77.285472850228,72.8245448897796,4.46092796044832,-448.224034178755,-819.162595507281,-805.790701968304,-806.412890253676,-797.819784909632,-815.967757590406,-800.693283353554
259,2.77939821075415,-258.851841602067,-261.631239812821,260.241540707444,1.38969910537708,-444.132991011167,-626.634742209513,-628.857275191724,-617.722641262197,-618.53380880336,-625.728823458252,-629.20624605965
260,0.42754290040466,-31.7424282225547,-32.1699711229594,31.9561996727571,0.21377145020233,-190.332429567527,-348.494888012094,-351.242998324567,-343.140370438516,-348.384167598502,-354.41286456649,-342.309533455555
261,-2.6604864562687,-30.1753928507096,-27.5149063944409,28.8451496225753,-1.33024322813435,-139.955940144166,-252.39697389389,-247.154780300683,-255.757450295176,-245.280107090744,-242.600027270295,-249.948260933481
262,1.34621357731521,8.07530366542051,6.72909008810529,-7.4021968767629,0.673106788657606,-70.2160155139572,-147.16112111602,-135.227108592051,-148.366074912483,-141.642206376215,-145.774672459142,-133.534349063557
263,-8.41637532014283,178.906525192142,187.322900512285,-183.114712852213,-4.20818766007142,94.7510909991252,2.17928148596548,6.30438838902046,4.14464176874026,-12.0682759750925,-9.52132092451211,6.22832405896042
264,-7.63405157407396,22.025970018236,29.6600215923099,-25.8429958052729,-3.81702578703698,-3.50828445705702,-36.676590506424,-42.4122836794704,-57.4816478878201,-57.8695806162141,-51.1982732943725,-45.5555562664522
265,-7.45903398303199,354.684996776952,362.144030759984,-358.414513768468,-3.72951699151599,277.379483686076,192.614936612168,188.034392678033,195.224219260737,199.107974944869,192.947936997341,199.590847470885
266,6.09521603124449,-32.8401225312555,-38.9353385625,35.8877305468777,3.04760801562225,-17.0508424651052,4.8336536322895,-0.00465330912265927,4.85369004140375,7.70541964538279,6.14229613408679,-7.06133083693567
267,10.1318422383338,103.637226691324,93.5053844529903,-98.5713055721571,5.06592111916689,102.014095388178,110.522806323366,117.189069881133,114.925338654197,120.940715952165,110.046045229887,131.39260587687
268,7.88578548442456,12.1031121515261,4.21732666710159,-8.16021940931387,3.94289274221228,38.7785608297709,73.3397949924401,75.1290258296067,67.7092219848128,68.6470395228534,61.8104297097598,70.2752972967864
269,7.19228948134696,1.55925148035749,-5.63303800098947,2.03689326031599,3.59614474067348,38.8616999796359,83.3564379602612,76.9228972225392,85.5154827623628,77.0557029692573,76.6533752392861,91.3599898838729
270,3.90043525045621,-319.711011279695,-323.611446530151,321.661228904923,1.95021762522811,-172.530452412699,-21.4494582952466,-17.4271801331488,-23.1327559202036,-12.8128777107922,-5.56021473291912,-26.6940504983359
271,-16.5114197535731,-171.795191644749,-155.283771891176,163.539481767963,-8.25570987678657,-34.4569099057699,86.3699520796363,76.6352385909995,79.7357957061031,93.3265049342881,83.6533595688816,71.9564664855716
272,-6.03884544511675,-64.288102595543,-58.2492571504263,61.2686798729846,-3.01942272255837,63.2045964618737,184.658450074174,199.523153867398,196.194067906996,193.522588864318,193.408094690094,205.205970649404
273,0.523540997091914,-105.42258846233,-105.946129459422,105.684358960876,0.261770498545957,29.7038336601108,165.353796779644,149.261171653052,145.135759714351,147.602440060844,145.808265509724,158.409836771258
274,-11.1512925439165,113.407817616535,124.559110160451,-118.983463888493,-5.57564627195825,210.637112977638,296.715115794825,311.691114639572,314.395613632194,305.395756642596,290.975322721177,294.634912132926
275,-0.727658889460145,-4.79555920712301,-4.06790031766286,4.43172976239293,-0.363829444730072,152.134610976675,308.337122271012,312.334960142733,303.893230456189,303.062339699274,318.639491756767,318.578785791702
276,11.0468875527149,11.0853714890836,0.0384839363687206,-5.56192771272617,5.52344377635745,741.142603035114,1482.24672213386,1471.56800542312,1476.00960605787,1482.42680953231,1484.60802329617,1476.9892318554
277,5.15320400733617,-38.8219994823739,-43.9752034897101,41.398601486042,2.57660200366809,1717.69189856817,3479.35900062605,3488.6784383441,3481.6246266852,3484.94612060755,3483.06153261624,3480.26711837095
278,-2.11680136213545,-50.2894247824152,-48.1726234202797,49.2310241013474,-1.05840068106772,3387.27486711495,6822.72235765017,6823.88758955093,6812.30913337291,6819.5934804515,6844.15393421325,6815.82183044337
279,1.34718119204626,-45.2198657230474,-46.5670469150937,45.8934563190705,0.673590596023132,6160.42915566148,12367.425358238,12359.7210116377,12359.9063967708,12331.5285175029,12356.9824688796,12342.447195473
280,9.31594341516029,-361.213945619878,-370.529889035039,365.871917327459,4.65797170758015,11040.8474517952,22452.2247926254,22443.5806135061,22437.1948247309,22405.6436404922,22466.5666595591,22469.790283831
281,4.12578386682435,-647.400526365149,-651.526310231973,649.463418298561,2.06289193341217,26867.0130675061,54385.5524452442,54402.6211976255,54361.3536883279,54333.289623447,54445.619633029,54420.6421369307
282,2.87502734526061,-377.812094234338,-380.687121579598,379.249607906968,1.4375136726303,11360.6830632509,23102.0532480814,23090.7250447573,23082.9021404697,23050.1516106658,23096.9547420903,23099.8136172749
283,7.27049191689002,-186.089400235796,-193.359892152686,189.724646194241,3.63524595844501,6530.05849200449,13253.4768761617,13272.9297925508,13258.4016986484,13232.3740682691,13277.3971406083,13269.0269234739
284,4.62021582887974,-100.056778497004,-104.676994325884,102.366886411444,2.31010791443987,3905.03288400485,7914.74276233558,7911.76341644122,7903.53117286001,7929.9805409963,7926.68337441434,7941.37841338682
285,3.74522134990548,-170.116488854546,-173.861710204452,171.989099529499,1.87261067495274,2206.99954623051,4587.86080266547,4594.83473491986,4579.93322737998,4589.59334451132,4591.48186881599,4588.17115959822
286,4.09657133682049,-80.4383174471732,-84.5348887839937,82.4866031155834,2.04828566841024,1275.32338629835,2635.18166138069,2650.67841113367,2625.26226027656,2636.8984204485,2643.1147299291,2643.79001144026
287,2.02269286022056,-143.123809587705,-145.146502447926,144.135156017815,1.01134643011028,657.578207614686,1460.3029176773,1467.33021389175,1462.82314550379,1458.48600123893,1481.18166258879,1474.53067668248
288,-17.623060675076,-16.0864411880611,1.53661948701483,7.27491085052316,-8.81153033753799,785.922474173363,1570.30832885971,1584.89631319843,1562.68063145832,1561.48933066349,1568.98429937931,1572.6430550873
289,2.76041241362691,-74.9673148405855,-77.7277272542124,76.3475210473989,1.38020620681345,714.143033780449,1506.01379481511,1501.49472652507,1494.40524037479,1496.69607261755,1494.44785176966,1500.56831736973
290,-1.86197539538261,-215.272255352669,-213.410279957287,214.341267654978,-0.930987697691307,613.820355405347,1441.05099076798,1436.75666992474,1430.91594215936,1428.55521217376,1423.71159297554,1437.31426973539
291,-3.91510868645855,-450.838109041069,-446.923000354611,448.88055469784,-1.95755434322928,438.894252607221,1324.71150556905,1313.4777800788,1323.0150880799,1314.56658865121,1310.06740491278,1316.0931122881
292,1.12526460003573,-12.77548401081,-13.9007486108458,13.3381163108279,0.562632300017867,756.849756880838,1527.60026237252,1522.88860384209,1530.23610314139,1535.89801685506,1531.12097906455,1527.80408434276
293,-1.83135371864773,-139.801001071057,-137.969647352409,138.885324211733,-0.915676859323867,667.744045798274,1473.45773894896,1471.60854887753,1467.03999258601,1456.33760926052,1467.47644070705,1460.44057929213
294,5.35781781558762,59.2525488933898,53.8947310778021,-56.5736399855959,2.67890890779381,779.898250931743,1505.90177078568,1510.12017109976,1518.65276018987,1515.35346399189,1521.34225736558,1505.23062905748
295,-11.2229073502531,-175.785464385932,-164.562557035679,170.174010710805,-5.61145367512654,617.431598733441,1399.42575450256,1406.13912307238,1398.90417221998,1397.99011004632,1405.35998399422,1404.80559618297
296,-4.50128620429314,-77.7632352713263,-73.2619490670331,75.5125921691797,-2.25064310214657,701.938355171806,1477.13865941064,1481.6023180137,1475.97576303047,1477.86081136574,1473.52673920838,1479.86018608842
297,-9.63299254490994,-30.8297670886968,-21.1967745437869,26.0132708162419,-4.81649627245497,734.265808521654,1489.72839158709,1502.08266057802,1497.33767114495,1499.81038355842,1504.87722237522,1501.73902129437
298,4.82069349085214,-45.0258482759527,-49.8465417668049,47.4361950213788,2.41034674542607,708.784992126661,1467.41652602013,1448.8574725982,1465.95310895354,1450.05458133182,1468.76880395622,1474.2598782283
299,7.30234760523308,117.782959954813,110.48061234958,-114.131786152197,3.65117380261654,835.423414807534,1560.36621726549,1561.33946977492,1550.44058995397,1557.00802375286,1554.71790104924,1563.78491362507
300,-0.110180107993074,70.6479736158799,70.758153723873,-70.7030636698764,-0.0550900539965369,797.685848876165,1524.61354402846,1530.23328263217,1528.53691624917,1521.88261626748,1527.9181226154,1521.12179588524
301,-4.49945598200429,-25.1951375844947,-20.6956816024904,22.9454095934925,-2.24972799100215,732.413115218282,1485.52191203905,1482.92118556955,1480.24305061786,1470.77406318634,1475.36772865994,1470.25257336922
302,9.0668577219476,28.87355061571,19.8066928937624,-24.3401217547362,4.5334288609738,738.097493306617,1456.38829371947,1462.85514026304,1469.37151585118,1457.66485119867,1460.23132804147,1458.52345728653
303,4.87074988917448,-61.1428797618719,-66.0136296510464,63.5782547064591,2.43537494458724,669.556763717614,1405.12715708627,1404.58795910332,1406.42652780088,1406.10067441221,1396.56550355852,1417.46883808033
304,-6.79274312159396,-75.4424268113216,-68.6496836897277,72.0460552505247,-3.39637156079698,663.544523854842,1395.73873139941,1378.15571017552,1400.67103696731,1392.71915675674,1397.25617343123,1389.30344765756
305,10.5735597992316,10.2178313554614,-0.355728443770204,-4.93105145584559,5.28677989961579,723.396360786981,1447.14845001773,1451.55984374092,1443.70000536455,1450.48429967999,1448.08819363892,1439.38764861404
306,-0.253321527299704,-180.51970551681,-180.26638398951,180.39304475316,-0.126660763649852,591.776803002547,1363.8199899946,1358.07101543597,1359.70980970975,1361.56995057681,1363.85191169829,1352.27931508399
307,-9.88917052530451,70.2362639890052,80.1254345143097,-75.1808492516575,-4.94458526265225,784.962950597241,1489.80046668017,1490.72097103018,1483.64548870444,1491.10556791545,1489.73511898523,1505.87793279428
308,-15.3638593482028,45.5558065296209,60.9196658778237,-53.2377362037223,-7.68192967410141,764.926834677593,1468.93400347736,1472.03278302946,1469.60084291484,1467.02148761071,1479.42008946542,1472.57788402762
309,-6.48724115057848,131.922856820369,138.410097970947,-135.166477395658,-3.24362057528924,818.614154033683,1498.81821009642,1503.45967712402,1500.46611646164,1498.52628070721,1503.13216236688,1521.85612077624
310,-0.241907919815276,65.8624016089889,66.1043095288042,-65.9833555688965,-0.120953959907638,761.914413853738,1457.72451817867,1459.13045410017,1449.08167450051,1456.92048787372,1451.69266609821,1452.01510002953
311,5.84555641506449,-125.444568131526,-131.290124546591,128.367346339059,2.92277820753225,596.210252159799,1323.71062886619,1339.20781724257,1329.6761129912,1341.03840982987,1333.98873096955,1321.08408553348
312,12.8813119822589,-48.1806342630589,-61.0619462453178,54.6212902541884,6.44065599112946,667.627499289971,1396.31694482526,1399.12564092863,1388.24801886102,1377.5513840362,1395.7713933796,1382.83915516065
313,5.79643808532273,-140.45234463067,-146.248782715993,143.350563673332,2.89821904266137,599.119727410463,1344.48823753692,1344.86534210417,1337.60386350076,1339.84835583996,1343.82217430728,1338.53425933188
314,5.75007668355829,-91.7575859034259,-97.5076625869842,94.6326242452051,2.87503834177915,634.72728170082,1366.96222598862,1368.56106131582,1378.54904026314,1370.02932142757,1378.12470500913,1371.75258052256
315,8.78614807603299,-50.9327781136963,-59.7189261897292,55.3258521517128,4.39307403801649,656.889394093669,1373.49771437707,1360.48912359911,1380.12264569991,1375.57072723756,1358.87207175454,1372.78507930526
316,-6.6052144295827,16.9497752956522,23.5549897252349,-20.2523825104436,-3.30260721479135,708.827092946318,1394.0991961674,1413.02207833243,1403.00553099508,1384.56881280831,1395.05757651789,1398.88598981875
317,-1.27425545011647,-31.3379829670594,-30.0637275169429,30.7008552420011,-0.637127725058235,683.514675277882,1397.09307807271,1390.3060399681,1379.8662227116,1385.24404231264,1385.62071593371,1394.8079802774
318,-9.68666077314992,118.618647955096,128.305308728246,-123.461978341671,-4.84333038657496,789.391336118497,1450.47736350875,1453.74096134031,1451.84595669375,1456.90999483381,1454.09232322223,1460.44779185028
319,6.10708093264839,35.935054809408,29.8279738767596,-32.8815143430838,3.05354046632419,721.169670276911,1412.51136667706,1401.12929428858,1395.42371350984,1397.78919393572,1413.09048396989,1405.62953695448
320,3.04043555140379,46.2004836324777,43.1600480810739,-44.6802658567758,1.52021777570189,718.435310570028,1393.71057305898,1397.02953100583,1390.11217778514,1397.4752913673,1404.43819618315,1391.17076367448
321,5.02311874835868,-61.0219640000723,-66.045082748431,63.5335233742517,2.51155937417934,643.826571832469,1353.69822641337,1352.65351308993,1347.80661968252,1361.29299931723,1366.69406471078,1359.72624847162
322,2.05494531363365,-128.397698106914,-130.452643420547,129.42517076373,1.02747265681683,993.507571585302,2117.46778659115,2115.12752444472,2116.91414210733,2118.12036304691,2102.83490433302,2126.11192308739
323,-9.05396469135303,-304.350454013591,-295.296489322238,299.823471667914,-4.52698234567652,1519.52635998516,3334.34920929256,3326.76042376398,3341.38416035133,3325.05815567437,3333.28621363649,3334.34638892347
324,-4.27937613002723,-59.4861035236972,-55.20672739367,57.3464154586836,-2.13968806501362,3754.16028507205,7563.52729753777,7564.81366924805,7558.1158986775,7548.29997139669,7568.28064246874,7566.58051460178
325,-13.1344475269434,-163.574892675591,-150.440445148648,157.00766891212,-6.5672237634717,5455.38766743233,11061.2157800133,11069.1944096906,11050.6940790316,11046.3631739473,11067.3700433039,11072.6149783769
326,-4.68650960142259,-289.93710944723,-285.250599845807,287.593854646519,-2.34325480071129,13538.5074278357,27362.2654555172,27359.3911213005,27344.604907489,27315.7912467269,27374.2124648738,27366.4906312675
327,-0.939552197203739,194.158920430054,195.098472627258,-194.628696528656,-0.469776098601869,-1876.23618151357,-3947.57083565439,-3945.87376906062,-3935.19925475962,-3939.30652162628,-3953.14747699644,-3959.17583300377
328,-1.14515126607148,578.719695047213,579.864846313285,-579.292270680249,-0.57257563303574,-13650.8225413706,-27881.5099290546,-27866.8776313779,-27859.4643658382,-27839.9350246045,-27888.8188654375,-27886.8507438239
329,2.40107242923114,1538.50983269481,1536.10876026558,-1537.30929648019,1.20053621461557,-41663.7716237068,-84863.6520076791,-84894.3663848936,-84811.1474574613,-84753.3378961223,-84929.6542957428,-84921.4127593879
330,4.74392757535679,521.406261122203,516.662333546847,-519.034297334525,2.3719637876784,-16516.6696705362,-33550.0016746192,-33553.3445397634,-33526.3578678001,-33491.4718220098,-33559.5587043872,-33556.4980672915
331,-2.87011714841356,303.404985345755,306.275102494168,-304.840043919961,-1.43505857420678,-8774.89459913518,-17856.0643007645,-17841.6389253162,-17830.3919405725,-17823.9421011834,-17854.7614335741,-17855.4542619022
332,5.7702207279508,122.281089019554,116.510868291603,-119.395978655579,2.8851103639754,-4665.47398170481,-9447.45883170122,-9465.80855220754,-9444.26673358562,-9440.21848244168,-9459.08096645059,-9450.93203513607
333,6.4297967813618,144.708202230308,138.278405448946,-141.493303839627,3.2148983906809,-1831.9262105337,-3802.13082651634,-3789.04852911754,-3793.10290094945,-3808.04324706347,-3810.30946040069,-3800.00274130801
334,1.51372577398433,-57.0632095033943,-58.5769352773787,57.8200723903865,0.756862886992167,-256.451054765348,-454.325174253318,-468.59643384759,-460.022550380032,-467.084243890393,-456.714173564949,-456.243150861526
335,-3.92773063597269,-139.690391782293,-135.76266114632,137.726526464307,-1.96386531798635,663.280627036351,1462.32391521902,1468.77644509042,1465.43020957467,1465.61186718816,1470.30922280985,1452.70491137571
336,-6.9510037349537,-163.8567708419,-156.905767106946,160.381268974423,-3.47550186747685,662.66748649918,1482.24074010531,1459.06791744853,1480.40237388926,1480.29400328247,1488.15519850195,1476.83089115645
337,9.90425381116802,-91.8226833385997,-101.726937149768,96.7748102441838,4.95212690558401,699.778009541522,1501.28295623281,1503.57826566379,1499.16207134619,1496.83678224831,1500.27524222559,1497.25940162438
338,0.0366225059842691,-37.11040555418,-37.1470280601643,37.1287168071722,0.0183112529921345,736.18091379384,1509.50885564784,1515.07160017622,1490.9815599671,1510.36010015057,1504.3853206796,1519.47546979156
339,-7.3820205477241,60.5016566225677,67.8836771702918,-64.1926668964297,-3.69101027386205,821.955454313153,1576.02723145601,1585.23739799662,1561.5212611485,1567.76874871383,1563.49039136522,1580.17495595405
340,6.62172496132553,20.0336700553307,13.4119450940052,-16.722807574668,3.31086248066276,788.003323280529,1562.59470146705,1561.57424132028,1558.68235935643,1570.52345806602,1566.96872894108,1563.10560489938
341,8.91371068792068,-101.988471408549,-110.90218209647,106.44532675251,4.45685534396034,696.834635213061,1504.57145252259,1491.37967917716,1504.0613509402,1496.95750257283,1489.31595545268,1499.79864377205
342,1.52152464250685,-16.9748176461435,-18.4963422886503,17.7355799673969,0.760762321253424,772.582162168241,1563.66066662513,1559.65612489954,1563.49458613005,1541.41581410138,1562.85865277523,1568.99102794108
343,2.78321700257948,46.2857995445665,43.5025825419871,-44.8941910432768,1.39160850128974,828.215191587107,1612.92780063223,1609.17583931109,1619.8855229849,1619.58820471307,1626.50165781428,1604.15592758785
344,-2.86752641643398,-31.1175413046149,-28.2500148881809,29.6837780963979,-1.43376320821699,789.458303487394,1607.16662186297,1594.86252254178,1601.68793660396,1603.08717843262,1602.37414320663,1604.60786815794
345,-3.11780434095999,-86.2974023874849,-83.1795980465249,84.7385002170049,-1.55890217048,707.308153871913,1497.79590579035,1497.01902358336,1499.10895234629,1502.40409200915,1493.99852173607,1503.4672353107
346,-1.3443817164225,102.485022227484,103.829403943906,-103.157213085695,-0.672190858211252,849.007212817785,1594.18502169166,1591.12000342514,1590.19042631128,1609.78614575381,1600.83806683726,1587.72604563698
347,4.44850223322283,11.5276161605725,7.07911392734968,-9.30336504396109,2.22425111661141,760.261347310778,1513.44358069421,1515.83489184256,1515.0709705966,1512.09566973298,1512.61747008291,1514.76368247374
348,0.0457893146958668,106.039349332772,105.993560018076,-106.016454675424,0.0228946573479334,829.835208168326,1553.67685631858,1551.00211112108,1559.78497057882,1559.98201108057,1554.0084630379,1561.2013745968
349,-2.85799302253872,-105.003962488874,-102.145969466335,103.574965977605,-1.42899651126936,1266.75805708964,2635.66208364561,2643.9763630151,2641.0931510248,2631.16995989616,2641.49426408744,2639.00866661791
350,6.03394288630807,120.667210022046,114.633267135738,-117.650238578892,3.01697144315403,2519.37539150621,4924.11751587669,4927.44924520096,4923.52859495202,4903.11841744353,4921.24242617982,4918.47382977576
351,4.88184575206833,17.8063816755603,12.9245359234919,-15.3654587995261,2.44092287603416,4209.0129899504,8405.1014439773,8419.41048233726,8403.49727806484,8385.91916201709,8410.51555319058,8419.10233126697
352,1.10694974852959,-13.6525204452628,-14.7594701937924,14.2059953195276,0.553474874264793,7083.48739366514,14181.7342575241,14185.7155826296,14168.5919698507,14173.5565274653,14190.9348857484,14188.0474213637
353,-5.72603803547099,-160.819758754864,-155.093720719393,157.956739737128,-2.8630190177355,12314.5116584272,24784.1170375738,24788.0903362105,24772.6234564476,24752.9630571892,24818.6971575696,24802.8024191096
354,-3.00241548399208,-378.583683038567,-375.581267554575,377.082475296571,-1.50120774199604,29051.0827265724,58477.7467206994,58507.8888836225,58429.2399660181,58391.5804696151,58529.0432890171,58494.1469281192
355,0.367867650667904,-191.853806420346,-192.221674071014,192.03774024568,0.183933825333952,12149.0343918573,24490.2904577857,24498.5085854571,24467.8448685963,24466.379765632,24507.5263997431,24518.9225207375
356,-14.0020319068863,-301.432708781009,-287.430676874123,294.431692827566,-7.00101595344313,6646.65050746987,13580.7316918139,13604.1115359428,13570.5107823803,13567.9707697755,13588.4978730334,13592.5762235255
357,-4.95527290523751,-53.7714754072658,-48.8162025020283,51.2938389546471,-2.47763645261875,3906.53258630142,7861.88137510486,7849.99817943835,7869.34757009809,7851.59492273492,7861.88253220846,7861.45016306321
358,16.8329977408575,73.3626168792543,56.5296191383968,-64.9461180088256,8.41649887042877,2236.60397631903,4416.67833349967,4413.19898199843,4402.00228650591,4414.58490944284,4415.77807279842,4397.7362961685
359,2.62906902699615,-28.9823324994068,-31.6114015264029,30.2968670129048,1.31453451349807,1073.61062827123,2178.83265806886,2176.98799389697,2167.95486975892,2183.3920241624,2189.32564510187,2186.39777136096
