sep=, 
EKG Messung vom 28.01.2019 19.01.47
gemessen mit dem EKG Dongle der Hochschule Luzern BAT HS18

 
 , Lead1, Lead2, Lead3, aVR, aVL, aVF, V1, V2, V3, V4, V5, V6
0,-13.3284972867405,41.2524613887072,54.5809586754476,-47.9167100320774,-6.66424864337023,-900.200909379637,-1854.98277743472,-1845.03592079555,-1851.2189795314,-1847.65623637126,-1846.21072541596,-1840.0224003593
1,-5.14562619631761,-166.192868152109,-161.047241955792,163.620055053951,-2.5728130981588,-1065.86422499739,-1970.68120803899,-1973.74888259306,-1959.73778712991,-1966.43114400271,-1968.28466851226,-1962.47881399828
2,13.5349263047974,61.640831142955,48.1059048381576,-54.8733679905563,6.7674631523987,-903.170481152949,-1854.44686714406,-1852.35048180164,-1866.91831451334,-1874.6865035482,-1849.91523776462,-1850.57851255935
3,2.49358295623097,-108.002799695998,-110.496382652229,109.249591174113,1.24679147811548,-1019.28521533505,-1928.07404801788,-1936.08254529533,-1930.58771387034,-1928.41742298441,-1943.18159159561,-1925.50622501466
4,0.24569818857708,2.06595553463558,1.8202573460585,-1.94310644034704,0.12284909428854,-941.690234674257,-1885.20072669457,-1903.72682406026,-1884.97452997958,-1878.45455533295,-1905.39374393426,-1898.23123396863
5,18.3512323890172,96.4212950868241,78.0700626978069,-87.2456788923155,9.17561619450862,-912.362243716576,-1902.79455013096,-1920.81033343269,-1887.11529817351,-1896.74333229111,-1906.35217451854,-1914.23536227291
6,-2.86865744902752,217.438978268969,220.307635717996,-218.873306993482,-1.43432872451376,-790.107985127994,-1800.52360597398,-1804.9858417502,-1796.66091438752,-1787.92117243819,-1797.91451159591,-1789.04719656784
7,-19.1781348109653,471.236225009605,490.41435982057,-480.825292415087,-9.58906740548264,-589.27839201098,-1668.97114384253,-1675.80915799947,-1670.6766929295,-1664.15446753523,-1672.93932109792,-1674.23124071342
8,1.75304310806678,279.527484430757,277.77444132269,-278.650962876724,0.876521554033388,-735.196966582022,-1748.16837448673,-1726.99204213588,-1747.66034991734,-1726.16885790363,-1737.97661777685,-1746.21919733559
9,5.27021766459802,-58.4561189981468,-63.7263366627449,61.0912278304459,2.63510883229901,-979.296381613443,-1894.86642656414,-1899.52632235264,-1898.08703752584,-1892.27907488303,-1893.26483281419,-1896.7891147183
10,-8.2916547296918,220.024949269049,228.316603998741,-224.170776633895,-4.1458273648459,-749.857902990974,-1728.03240998069,-1726.32292109166,-1726.50161536297,-1720.88425712835,-1713.0961181435,-1724.86593366857
11,0.827634029759793,90.6250828540942,89.7974488243344,-90.2112658392143,0.413817014879896,-870.098170676662,-1829.99379017766,-1815.3926797797,-1826.21796770141,-1822.02211097075,-1827.26101688232,-1827.27137081805
12,5.17773231636966,154.666928287013,149.489195970644,-152.078062128829,2.58886615818483,-807.000747610946,-1763.49069119254,-1749.77903340349,-1736.26940217116,-1750.02222485369,-1749.82089613948,-1749.6697238182
13,4.46719996677712,-41.2583999052295,-45.7255998720066,43.491999888618,2.23359998338856,-936.339056460551,-1826.95251304909,-1850.34568702106,-1834.93227600327,-1830.20611414185,-1852.52370496694,-1846.48160140435
14,2.32233224224183,-39.1649938370101,-41.4873260792519,40.326159958131,1.16116612112091,-963.671959815823,-1885.85659355239,-1878.89063269788,-1870.18862720756,-1874.43755877821,-1866.13477600773,-1873.79810783078
15,-4.78358804390882,125.201215303881,129.98480334779,-127.593009325836,-2.39179402195441,-819.725487820033,-1769.43577898786,-1778.31945634095,-1774.53166224682,-1767.50743314609,-1779.2231361907,-1769.13501487201
16,2.97792077690247,44.9082431143906,41.9303223374882,-43.4192827259394,1.48896038845123,-868.534092959817,-1778.99850825712,-1770.82789415837,-1785.58385495064,-1776.19554434734,-1781.95287807981,-1778.11068427016
17,-3.30488163029077,-39.9021258570137,-36.597244226723,38.2496850418684,-1.65244081514538,-941.427595065703,-1846.25794590468,-1822.20839847132,-1829.10668164791,-1833.04786650627,-1837.8885339066,-1827.56350258153
18,0.781061556335771,-13.2449106602871,-14.0259722166229,13.635441438455,0.390530778167886,-895.918754101105,-1777.81153598559,-1782.40446015738,-1773.84735887119,-1791.61334647634,-1792.4523667953,-1793.62723561903
19,3.32079701003386,-26.2170968203282,-29.537893830362,27.8774953253451,1.66039850501693,-922.869970395579,-1816.2020469608,-1809.59035390927,-1822.32583178877,-1827.76019529699,-1830.46431575151,-1819.67803969557
20,2.2495669972559,37.1421027030447,34.8925357057888,-36.0173192044167,1.12478349862795,-847.386094881309,-1729.66472546841,-1753.77509762262,-1733.16173892634,-1725.10727088564,-1731.09155660338,-1743.68447011258
21,-8.79066323090228,17.9721908963111,26.7628541272134,-22.3675225117622,-4.39533161545114,-869.425408422801,-1765.61367097282,-1767.36061097193,-1765.51028793427,-1761.3091743211,-1757.56320616687,-1762.90542393053
22,2.43382229626877,52.513865503337,50.0800432070682,-51.2969543552026,1.21691114813439,-852.515648301182,-1755.11133980943,-1751.7956831069,-1748.84275493014,-1749.64034625891,-1767.01779271386,-1751.33272614505
23,-1.77849610347766,-120.777036796149,-118.998540692672,119.887788744411,-0.889248051738832,-941.567866094076,-1764.13719149548,-1767.25303448032,-1775.08139362023,-1771.28626033483,-1773.82517474034,-1773.23496795259
24,-3.48291449501994,-11.7491571877326,-8.26624269271269,10.0076999402227,-1.74145724750997,-869.453906478026,-1730.64157026334,-1736.41909217849,-1721.97636425297,-1728.07286504272,-1728.11010783742,-1728.47504204526
25,-2.71886912657646,76.3418599758297,79.0607291024062,-77.701294539118,-1.35943456328823,-814.383475619368,-1707.82768034114,-1708.23345767619,-1719.33268340287,-1694.65783177954,-1716.72655995277,-1711.85039654671
26,-11.3291376946727,-112.650517326023,-101.32137963135,106.985948478687,-5.66456884733634,-923.586198940495,-1745.85101824964,-1743.42458614841,-1752.82807386637,-1742.78530666555,-1735.96489553983,-1750.86310509863
27,9.86971916796756,73.9094496086182,64.0397304406506,-68.9745900246344,4.93485958398378,-799.771567826712,-1663.58286609408,-1670.72814895664,-1646.3188788408,-1665.65760809276,-1675.0721640597,-1663.74809622433
28,6.1297007301182,-51.593698077515,-57.7233988076332,54.6585484425741,3.0648503650591,-886.577524157983,-1715.43164950833,-1695.82230477329,-1721.06798609061,-1726.6000328295,-1701.98489794185,-1708.14957405941
29,9.99444457844947,31.3284491475206,21.3340045690711,-26.3312268582959,4.99722228922474,-834.154823686113,-1689.6436519413,-1678.29745372524,-1690.18747924885,-1673.94568236044,-1684.78530448736,-1681.4855345861
30,12.7108546165109,87.9989783556957,75.2881237391848,-81.6435510474403,6.35542730825546,-774.668794943267,-1624.62571362572,-1641.78761190604,-1626.24642039119,-1630.87120068859,-1634.57705925437,-1640.71695741202
31,0.124787450797157,100.865981702053,100.741194251255,-100.803587976654,0.0623937253985787,-749.782280654035,-1600.30575555933,-1602.98054850884,-1599.59931685351,-1603.46528417701,-1589.43991626182,-1603.14777272081
32,-10.6794077389932,70.3867227817536,81.0661305207468,-75.7264266512502,-5.33970386949659,-764.799200479712,-1610.66453148017,-1609.04569367846,-1607.34165058305,-1611.77053841419,-1626.23867407252,-1621.45596117899
33,9.17548459509271,-29.8950989987352,-39.0705835938279,34.4828412962815,4.58774229754636,-835.725936218645,-1632.38128884346,-1616.62208992516,-1610.87461716216,-1623.03126947596,-1630.56414907021,-1629.64669066531
34,-4.60582473722752,-70.5127302702167,-65.9069055329892,68.2098179016029,-2.30291236861376,-880.675173128519,-1695.44344072405,-1704.00951318364,-1706.15453601268,-1701.43971948957,-1690.865123809,-1706.68261309084
35,-16.0640337067307,39.692566980113,55.7566006868437,-47.7245838334784,-8.03201685336535,-952.736229631657,-1961.22905995016,-1958.24346915184,-1962.85912664037,-1949.9879995987,-1973.90329712853,-1969.65954064115
36,5.77345129961031,-126.701254203013,-132.474705502624,129.587979852819,2.88672564980516,-1354.7895882382,-2577.10447097378,-2597.00733686215,-2597.72623617997,-2575.28455107147,-2582.82243095679,-2581.5542737591
37,3.54870925989235,-39.0393041174102,-42.5880133773026,40.8136587473564,1.77435462994617,-1714.08794339698,-3385.58787341666,-3380.71511781967,-3373.54962804908,-3364.8877031935,-3375.68743575204,-3374.56484205183
38,5.01755237602629,-87.4139794630755,-92.4315318391018,89.9227556510887,2.50877618801314,-2438.26546596487,-4784.09940009064,-4794.49070519977,-4787.57214497004,-4798.51127941013,-4795.23162320399,-4794.99426501253
39,4.84109446397633,192.923806439969,188.082711975992,-190.503259207981,2.42054723198817,-3552.02578868708,-7292.13428935016,-7286.09244921434,-7295.55962360621,-7286.54750795136,-7310.12023031863,-7299.22279838848
40,-0.886160945286974,443.65293544266,444.539096387947,-444.096015915304,-0.443080472643487,-7627.3406928038,-15699.2204819956,-15702.8838592666,-15685.207821224,-15675.8828213276,-15706.2077146095,-15706.3434320077
41,-3.69966489088256,43.4383357664337,47.1380006573163,-45.288168211875,-1.84983244544128,-2996.0069858561,-6039.15197236952,-6035.70036851408,-6028.17735362699,-6018.57617575183,-6033.25230894604,-6019.66221516102
42,-4.52294576997519,160.002188793442,164.525134563417,-162.263661678429,-2.2614728849876,-1275.4075864601,-2715.34030748362,-2722.70127639716,-2721.01713528382,-2712.1345870223,-2715.22826503354,-2724.59459151843
43,-1.753076773457,43.6080610700883,45.3611378435453,-44.4845994568168,-0.876538386728498,-508.127223929099,-1061.61558570174,-1060.72719484629,-1050.074588049,-1060.99542885509,-1053.07562086103,-1046.91119143291
44,-9.59802164125722,-35.2927371489641,-25.6947155077069,30.4937263283355,-4.79901082062861,-19.5529691505217,-13.4112227933365,-7.92194797639968,-19.9717538692348,-17.3946456478734,-14.8295646932092,-17.3688720141654
45,-1.32601136693847,18.0845391952898,19.4105505622283,-18.7475448787591,-0.663005683469237,312.628943721968,605.847336881707,587.326135095005,603.625399199431,601.94518488925,589.088914042921,596.026099656476
46,-4.83668787399074,-65.6692384856869,-60.8325506116962,63.2508945486916,-2.41834393699537,429.97698708922,920.786524790135,928.865360953816,928.013127198123,922.982972731697,922.85011169003,934.751478604943
47,8.28924794727936,223.265105227736,214.975857280457,-219.120481254096,4.14462397363968,659.717387676516,1104.45891807257,1104.31471945345,1106.02785866862,1112.35714009797,1127.03606069463,1096.95032450577
48,0.93348004645668,-184.235260502668,-185.168740549125,184.702000525896,0.46674002322834,358.260382627923,901.68950580497,907.497579108167,898.056653029518,893.033990692289,884.945785629709,905.200847847911
49,-2.93190851956024,-87.8876798970741,-84.9557713775139,86.421725637294,-1.46595425978012,432.317657847423,949.59108707236,948.482771563751,941.597056406492,960.211523759499,946.698649620783,947.969005348859
50,8.02049462561263,142.511881522922,134.491386897309,-138.501634210115,4.01024731280631,584.422664361889,1034.35394182647,1051.56252742183,1053.17152153872,1041.31183069386,1051.71287277728,1046.15913512159
51,-1.8999084920215,-31.187175863015,-29.2872673709935,30.2372216170043,-0.949954246010748,481.288344685861,991.863956742716,980.280482214468,989.84384058672,979.519191551779,994.264052418148,994.730463375541
52,-4.16797399727511,-21.5720199000789,-17.4040459028038,19.4880329014413,-2.08398699863756,509.660247019376,1036.72453994156,1037.16506011202,1037.50031064809,1014.56830209662,1012.48443592552,1026.48573830951
53,-6.9918316360272,-70.4504015400598,-63.4585699040326,66.9544857220462,-3.4959158180136,498.357489809903,1060.17354952384,1066.16932877825,1051.90333859451,1049.3249395756,1061.34414360631,1045.90048721849
54,12.5103657249711,-92.012935063598,-104.523300788569,98.2681179260835,6.25518286248553,481.799487486278,1068.12227576112,1063.09703798831,1073.63955805608,1069.59918972116,1076.32886142633,1077.04692750119
55,0.905981197953224,-109.527021025424,-110.433002223377,109.980011624401,0.452990598976612,475.227233531041,1060.88746928546,1088.46775931516,1074.47270771582,1073.47294685597,1077.95615711529,1066.88712835821
56,-0.68680063879583,-145.440662446519,-144.753861807723,145.097262127121,-0.343400319397915,457.244985191035,1059.24383218979,1035.50952159357,1059.37274487302,1049.76387333026,1054.61754857289,1049.35308560953
57,-9.08460533927428,-554.460950317851,-545.376344978577,549.918647648214,-4.54230266963714,164.213056483728,873.802457946033,874.373362985119,876.187683912809,896.239822900126,872.376513020427,879.199481102783
58,16.9212859750842,-294.161972488946,-311.08325846403,302.622615476488,8.46064298754209,342.256192087792,995.595642639615,998.782224599767,1003.67668461916,1000.49707525736,1008.90595836527,1010.76797201845
59,-9.38218954199692,-301.236946711288,-291.854757169291,296.545851940289,-4.69109477099846,373.113513531702,1038.08178423269,1028.37398077647,1034.27130723462,1031.68459196703,1024.43750100426,1017.1167858002
60,-2.20839204531512,-185.244843813853,-183.036451768538,184.140647791195,-1.10419602265756,420.922009020593,1024.88046980972,1037.06324390951,1018.24810078097,1017.97573694022,1029.97905122404,1038.59256315103
61,-4.41222249556449,175.240944006859,179.653166502423,-177.447055254641,-2.20611124778225,718.664697944507,1257.67622938659,1238.41050671512,1238.48207227874,1239.31733141968,1256.89028960466,1251.80119110798
62,1.57701417716453,18.3161876932427,16.7391735160782,-17.5276806046604,0.788507088582264,595.282208971825,1173.82524442757,1169.05310590664,1170.75960761198,1163.45106208615,1165.37311591161,1185.66383033636
63,-5.66696123810834,5.69001977716107,11.3569810152694,-8.52350039621524,-2.83348061905417,576.111824769556,1140.86666852384,1148.01375714943,1132.67924937152,1148.86255008364,1156.18167612603,1156.85007988257
64,3.54663873137906,73.2573041709838,69.7106654396048,-71.4839848052943,1.77331936568953,627.944761810562,1186.17885818152,1190.83989933485,1180.80621251359,1197.19806469997,1198.95673467242,1199.54381777794
65,6.8551489203237,-53.6689767585194,-60.5241256788431,57.0965512186813,3.42757446016185,544.538511750405,1149.60114917965,1146.58341363582,1139.4648681354,1140.24834393463,1146.25811480099,1143.82918203817
66,-6.86659902875545,132.939186896227,139.805785924982,-136.372486410604,-3.43329951437772,701.4266332431,1263.04748056122,1270.20818694032,1283.67542005455,1259.93929028715,1280.90808467395,1257.35249511708
67,3.8978642540751,-24.7499380808731,-28.6478023349482,26.6988702079107,1.94893212703755,551.233272407466,1131.11434714988,1123.46185351926,1124.75912990657,1124.05202260127,1122.86840818924,1123.07781282751
68,-17.4484974245133,-77.5893171074858,-60.1408196829725,68.8650683952292,-8.72424871225667,525.279339029425,1110.69949774182,1098.67336448046,1090.0178396767,1103.20774440712,1098.49745550848,1094.35595097215
69,1.95673823330435,-66.4745392486511,-68.4312774819555,67.4529083653033,0.978369116652175,528.927268290412,1126.28581406278,1126.23062891667,1119.36947144257,1122.55654600126,1129.6974367302,1130.80624407672
70,-0.700892789027421,-0.517658873286564,0.183233915740857,0.167212478772854,-0.35044639451371,590.967739724481,1181.75224553322,1183.35745662931,1190.13549490907,1183.13775011516,1176.27326421419,1185.2838444486
71,3.84674072751659,59.1319621666044,55.2852214390878,-57.2085918028461,1.92337036375829,647.794690055889,1240.30415867269,1233.07487983955,1234.23064018376,1234.03153770257,1233.52252021522,1232.81355180961
72,-3.58177292687469,75.6819088991324,79.2636818260071,-77.4727953625697,-1.79088646343735,662.69759217379,1246.13150252157,1258.22102931596,1251.99495493528,1231.99244305966,1246.63076360599,1239.06654902405
73,6.42325399635592,33.1385653084435,26.7153113120876,-29.9269383102655,3.21162699817796,612.639966737435,1198.56462216278,1180.20129986678,1186.1787654988,1191.77441158431,1189.21203192591,1197.79160759499
74,-6.13657028356101,101.849443348328,107.986013631889,-104.917728490109,-3.06828514178051,685.236470094751,1262.48692655761,1298.32563171175,1273.3844959453,1281.51932733669,1280.35281583428,1270.51125777941
75,8.29200440651039,82.9358108945016,74.6438064879912,-78.7898086912464,4.14600220325519,689.797636765928,1304.95146704387,1287.58425208888,1293.8017584664,1302.03907615884,1288.53763529402,1297.06491334157
76,1.37697837516316,58.971594672912,57.5946162977489,-58.2831054853305,0.688489187581581,656.633960927735,1255.67330555772,1275.45848316763,1250.02060698628,1259.04117237724,1248.0116958112,1261.82724178571
77,2.03878467503819,-10.0987643379776,-12.1375490130158,11.1181566754967,1.01939233751909,622.968701689402,1258.07495239182,1242.13975193881,1248.93298927115,1247.63395173376,1248.7932311834,1254.36346632402
78,0.22442764902371,-92.7800210613059,-93.0044487103296,92.8922348858177,0.112213824511855,580.488497641985,1253.9814439943,1249.1288309248,1243.82298310107,1257.09537093292,1246.12213003504,1251.06862815827
79,-3.20181747787865,-50.7917573704908,-47.5899398926122,49.1908486315515,-1.60090873893932,597.068001002714,1241.72594189804,1250.11505650138,1248.13148164781,1234.04984775037,1244.04570918647,1231.83909285607
80,-8.13212644134182,-10.4714204016491,-2.33929396030726,6.40535718097817,-4.06606322067091,644.840018735471,1292.01933143125,1288.7530403382,1307.32371220808,1297.36264082024,1304.65923233778,1314.79636558265
81,9.33935782773187,-201.603968515556,-210.943326343287,206.273647429422,4.66967891386594,479.68834676237,1170.32001986803,1166.7185165312,1159.79658563485,1171.14597238204,1179.76130099877,1167.89444341141
82,3.68461819447111,-81.592532892857,-85.2771510873281,83.4348419900925,1.84230909723556,586.470542854251,1258.21823679583,1253.53461109858,1255.92673659322,1253.26202853853,1268.10222656329,1252.12885022582
83,-2.75354524044087,-169.591841814545,-166.838296574104,168.215069194324,-1.37677262022044,519.660848601779,1206.15999377766,1210.42074781115,1203.76287000216,1197.5462982569,1190.25593892444,1206.85680232535
84,4.68719231095747,214.76372731803,210.076535007072,-212.420131162551,2.34359615547874,807.664790275987,1405.2530455449,1411.7199645162,1402.94639685558,1406.30989948727,1410.54552881606,1414.48174390831
85,-12.2150014796061,-131.933176499355,-119.718175019749,125.825675759552,-6.10750073980307,1192.72229530188,2505.16276562351,2521.0467627577,2517.15837380613,2523.14580881261,2503.83843469483,2526.85942858431
86,5.33970835441141,-158.404263290635,-163.743971645046,161.074117467841,2.66985417720571,2281.45281085558,4726.64959335621,4728.53357597318,4734.98607170398,4720.25523853791,4741.81238298336,4725.77276874043
87,-2.2870606505021,-86.0635460346239,-83.7764853841218,84.9200157093728,-1.14353032525105,4191.85336514731,8467.48321567875,8455.06094346085,8468.08096585012,8463.09260958506,8473.82175999673,8470.87043415656
88,17.7481429486943,-193.063053356105,-210.8111963048,201.937124830452,8.87407147434715,7190.26204250968,14591.3352813242,14598.6816008665,14581.2511045008,14572.0221582583,14609.2750936562,14586.436183551
89,-0.834745274012676,-227.330007048644,-226.495261774631,226.912634411638,-0.417372637006338,12865.5988738932,25957.693009561,25967.4490718057,25949.1920427135,25904.1173894794,25979.4838037243,25975.7952714937
90,4.99001083426992,-619.199292276724,-624.189303110994,621.694297693859,2.49500541713496,30537.9127747644,61700.0148526398,61718.836297064,61667.1870666177,61613.8236853332,61736.5163745238,61734.7561052318
91,1.07027790465509,-218.488618424424,-219.558896329079,219.023757376752,0.535138952327543,12792.1228465265,25803.804589382,25817.9478528184,25783.7519679464,25755.959933672,25815.1767433048,25811.7623960574
92,7.79192287439946,-114.384288529021,-122.176211403421,118.280249966221,3.89596143719973,7135.13926101319,14392.4547334298,14400.6364244292,14375.7864297894,14391.5610478565,14395.7406120378,14399.1968622621
93,-4.52128226310015,-25.2231950950518,-20.7019128319516,22.9625539635017,-2.26064113155007,4104.02088139897,8228.7436756299,8231.21431093264,8242.60672203431,8236.26703932797,8249.58242907654,8253.8351829176
94,-0.358379138604505,-78.4357888193335,-78.077409680729,78.2565992500313,-0.179189569302252,2198.51045308389,4475.0983158485,4466.47629148726,4449.17995639367,4482.07478702746,4477.50728094124,4450.52615612961
95,-6.37781926617026,-187.46996188286,-181.09214261669,184.281052249775,-3.18890963308513,972.384724792122,2125.86159220093,2126.84464340183,2133.95517846773,2116.62346102041,2136.58155777588,2122.12652436263
96,-6.20068275908125,16.3262694006844,22.5269521597656,-19.426610780225,-3.10034137954062,477.148149803907,931.769347448047,937.768145233626,929.724482016143,933.026991479914,934.266719282139,932.245271077409
97,-1.139202037215,-44.4165668805654,-43.2773648433504,43.8469658619579,-0.5696010186075,686.827781765664,1416.93292837468,1416.01839590957,1417.81060542326,1413.39942058889,1429.94265435176,1413.56014450561
98,-5.90281986506307,-38.2747758007899,-32.3719559357269,35.3233658682584,-2.95140993253153,1143.4347815151,2319.24151896592,2329.17555823975,2307.5898373925,2317.03906872892,2326.10885822147,2337.6295434385
99,-8.50439595908392,-105.422932399699,-96.9185364406148,101.170734420157,-4.25219797954196,1849.37631747905,3795.67117139872,3796.67148409889,3801.78893677256,3787.65232037427,3802.93641197865,3800.67590820687
100,7.69631924244459,107.447052426141,99.7507331836969,-103.598892804919,3.84815962122229,3195.75187823588,6291.75302328807,6318.6897991772,6316.62303883917,6296.08852307507,6309.59983358884,6318.84069451349
101,9.77863247226924,51.6811634094629,41.9025309371937,-46.7918471733283,4.88931623613462,5393.05311282523,10744.2036947133,10756.5411875381,10740.6750212334,10730.6663560532,10753.6001116488,10761.253890405
102,6.45319157865015,-18.5553403127124,-25.0085318913625,21.7819361020374,3.22659578932507,12438.8729451592,24902.7544222098,24912.4222467251,24885.8516608982,24875.5686826263,24921.8738882823,24922.910127829
103,-13.4995206755702,-70.579027401167,-57.0795067255967,63.8292670633818,-6.74976033778512,5062.77697455799,10182.6334558416,10180.044748266,10167.9810182916,10174.0578633444,10195.5162363466,10184.4518752594
104,-0.582270899438299,-103.053312548524,-102.471041649085,102.762177098804,-0.29113544971915,2673.96814967139,5450.40734099186,5416.56183379653,5430.86752343926,5422.47059409483,5435.52070520687,5426.79085751297
105,5.03023225202924,-49.6609424499038,-54.6911747019331,52.1760585759184,2.51511612601462,1417.99540496444,2890.68198463082,2897.79366121787,2893.25532528965,2882.39399261051,2892.81641614423,2892.38967737296
106,-1.66919541417155,147.91530701844,149.584502432612,-148.749904725526,-0.834597707085777,811.055018205865,1472.52553397912,1474.26706153492,1459.29219659299,1469.9813936117,1456.83751963408,1467.11026172576
107,8.17464834204293,219.596076590504,211.421428248461,-215.508752419482,4.08732417102146,399.434288571501,587.447148894542,594.353851912572,592.589916489291,596.8326849312,600.467650290433,592.872092158301
108,-5.48318720437237,122.24976248946,127.732949693833,-124.991356091647,-2.74159360218619,63.9279494873044,0.122949280776083,-0.580408659065142,-11.9325109996134,2.96669116884004,2.55435826536268,1.79602546914248
109,0.462216324260226,128.748181721719,128.285965397459,-128.517073559589,0.231108162130113,72.3575203682849,16.4290753391106,19.0687860850303,0.230867417471018,9.98769261172856,5.24943005174282,-5.26616371635464
110,-1.85619596688775,10.9409955142764,12.7971914811642,-11.8690934977203,-0.928097983443877,-35.4735455468326,-83.7442825748294,-86.3104603337706,-94.117664255813,-90.0000523562776,-73.2532896716148,-91.8720241766714
111,-1.04629658552585,-114.392371917551,-113.346075332025,113.869223624788,-0.523148292762926,-133.631738696422,-153.917402060819,-147.545109612431,-135.912244156876,-149.447589299118,-152.475711767882,-141.927830248023
112,1.58315057720756,99.6395538313373,98.0564032541297,-98.8479785427335,0.791575288603781,13.7965571241366,-70.4632890058565,-84.5965224830143,-63.3220221480588,-78.6131988256238,-87.4698508071888,-64.2409467473335
113,-2.41165306000039,-18.497136731603,-16.0854836716026,17.2913102016028,-1.20582653000019,-67.9877942814928,-119.890104891383,-121.493691901211,-116.952188812662,-112.773470855696,-124.649622829078,-124.339063530962
114,-2.26325247364002,-41.7241165162413,-39.4608640426013,40.5924902794213,-1.13162623682001,-91.9380113506631,-144.415158658725,-144.272817337274,-152.450245016516,-140.23903295878,-152.49682476357,-147.357191690622
115,2.86296000058064,112.943187402969,110.080227402388,-111.511707402678,1.43148000029032,17.6067162656982,-74.8667948709917,-77.6139356292842,-58.9573828460416,-65.0017710877,-70.6795994619315,-66.130743382877
116,4.59427916374989,170.46813654658,165.87385738283,-168.170996964705,2.29713958187494,55.3149040085555,-55.2440493657195,-54.2008340499888,-65.9496800202178,-55.3322817716689,-51.2119727552054,-60.8142864522233
117,-1.02786311600357,167.653665444086,168.68152856009,-168.167597002088,-0.513931558001786,69.8035975518869,-29.0743334563158,-20.3032182969619,-35.1791526501765,-26.1109888731735,-19.4307569689408,-24.5796847419697
118,9.18376018438721,28.1859110067016,19.0021508223144,-23.594030914508,4.59188009219361,-47.8564794829726,-114.71510978826,-110.124793070165,-109.591442193952,-121.166196084494,-113.456305350468,-123.25423891627
119,-1.54556153251906,120.667903224094,122.213464756613,-121.440683990353,-0.77278076625953,23.2824022350251,-75.6486602865625,-52.1311324384005,-55.2706927465624,-58.80827500124,-63.652362468536,-47.9638976981805
120,-12.5053964499093,-21.9871015436074,-9.48170509369811,15.7344033186528,-6.25269822495466,-106.464747443781,-203.447789793863,-190.340313157678,-203.303168431972,-205.439265618421,-201.056636564754,-200.200521321996
121,3.33357879405958,113.000823030074,109.667244236014,-111.334033633044,1.66678939702979,-3.17143545114959,-116.010115138313,-142.810999739129,-129.896566833544,-120.996938208409,-126.973421495728,-119.772905146412
122,-5.36845217784867,68.9750708985666,74.3435230764153,-71.659296987491,-2.68422608892433,-717.95867840483,-1510.26087988607,-1512.39780967444,-1507.07663122474,-1513.89544785599,-1519.19836874388,-1516.91779088919
123,3.75512422216707,-72.5804254068935,-76.3355496290606,74.457987517977,1.87756211108353,-1989.21166689668,-3902.08778416429,-3903.7522185953,-3906.20847290909,-3895.43756399624,-3895.08322752541,-3898.17242506461
124,-3.78901410798426,113.105516900338,116.894531008322,-115.00002395433,-1.89450705399213,-3720.21431719398,-7557.32316539629,-7550.92375732376,-7533.67832425886,-7534.25605312866,-7560.94583944234,-7557.62471774404
125,-2.43771365765133,100.94306471679,103.380778374441,-102.161921545616,-1.21885682882566,-6870.630386502,-13844.6415513784,-13835.9797226247,-13836.408501711,-13821.3532339527,-13845.5410190354,-13848.9787337
126,8.41863261634717,216.284726874932,207.866094258585,-212.075410566758,4.20931630817358,-12609.8982200351,-25427.6625343287,-25431.0424755588,-25412.2442802872,-25397.1148103185,-25438.434674749,-25445.1005120134
127,2.96099277859321,632.961527728272,630.000534949679,-631.481031338975,1.4804963892966,-30529.1302892406,-61688.2611134309,-61701.1951246717,-61644.4555831848,-61608.1252801063,-61735.3382759179,-61717.5587849884
128,4.7732995696424,210.300965873059,205.527666303416,-207.914316088238,2.3866497848212,-12999.8676747826,-26205.2630158686,-26224.1056980998,-26185.4782702561,-26162.9061836188,-26228.8424296167,-26215.1202771354
129,-3.25647004635539,150.256441841775,153.51291188813,-151.884676864953,-1.62823502317769,-7416.15707328606,-14985.8270584602,-14992.0830804619,-14983.7493168512,-14980.0139344554,-14985.2501564068,-14992.4327813898
130,-9.25594438213739,16.3954267037625,25.6513710858999,-21.0233988948312,-4.62797219106869,-4473.14480316047,-8971.94097740683,-8973.82402803996,-8961.44709701079,-8940.43879903288,-8971.73626433793,-8968.73980334637
131,-9.22734286496416,-79.380767840601,-70.1534249756369,74.767096408119,-4.61367143248208,-2721.22256497438,-5372.29170497312,-5394.84702630274,-5372.99857931232,-5369.70458748308,-5394.75967902355,-5381.41321976428
132,1.51194088504417,-365.747283274017,-367.259224159061,366.503253716539,0.755970442522084,-1825.39797470589,-3283.53672525272,-3292.58857463693,-3280.42238052376,-3289.85897248751,-3295.78487720538,-3292.74563252166
133,-7.23149251655559,-177.241577378794,-170.010084862239,173.625831120517,-3.6157462582778,-1033.55879121991,-1897.10749757758,-1898.7764539911,-1905.87368406067,-1906.40149821469,-1907.56231166614,-1906.03783300205
134,12.240253742988,-58.9317276636139,-71.1719814066018,65.0518545351079,6.12012687149399,-966.76167335255,-1862.3513652985,-1864.64864162714,-1839.34706926142,-1839.6992895421,-1837.10776380284,-1852.9715354119
135,6.36924373483635,-62.9956740227062,-69.3649177575426,66.1802958901244,3.18462186741817,-975.592647837417,-1881.82037791729,-1872.33981610887,-1875.77642341628,-1880.60459596507,-1882.6506334311,-1883.71731837798
136,-13.7965885493613,-28.0655570411182,-14.2689684917568,21.1672627664375,-6.89829427468067,-925.657011990857,-1837.04505548996,-1834.13165570205,-1834.04486695654,-1838.86392785655,-1832.82912919857,-1836.93249373315
137,-1.60682005685521,65.702788278606,67.3096083354612,-66.5061983070336,-0.803410028427606,-845.772733408739,-1758.85507515294,-1757.64129418222,-1760.96791206559,-1768.06004253501,-1776.05324060778,-1768.18349117134
138,4.24764908055658,-40.7211741558567,-44.9688232364133,42.844998696135,2.12382454027829,-912.673605921984,-1780.37838860755,-1785.07986558383,-1790.35634996765,-1778.92759289755,-1794.52332842373,-1784.08949608009
139,0.78126832091948,-191.162425858609,-191.943694179528,191.553060019069,0.39063416045974,-1029.76766938613,-1867.59164459273,-1875.08269769425,-1875.39209192951,-1866.75608311011,-1866.95108191116,-1871.47170443754
140,-3.14774483410292,-261.095374460361,-257.947629626258,259.52150204331,-1.57387241705146,-1082.75808872971,-1907.56854783316,-1913.07077062462,-1920.66114919228,-1918.83563752953,-1920.28401570226,-1919.39029446
141,15.7738983001618,25.5216590645723,9.74776076441049,-17.6347099144914,7.88694915008091,-863.680140971614,-1737.10804270764,-1737.64688348764,-1735.26644458977,-1737.45908931407,-1731.99556454265,-1727.70061146116
142,-5.03513818141073,107.106158484181,112.141296665592,-109.623727574886,-2.51756909070536,-789.61898715861,-1691.37927098281,-1698.45609223182,-1689.62191198964,-1684.66789362923,-1684.5021226292,-1687.68900660047
143,-2.71998579651699,-11.3415090046765,-8.62152320815949,9.98151610641798,-1.3599928982585,-874.938672690419,-1741.25582217268,-1746.06255470277,-1740.08679402602,-1751.81591115362,-1752.06472160504,-1747.65156367666
144,5.54491674923338,-65.3934782833967,-70.9383950326301,68.1659366580134,2.77245837461669,-912.150269713573,-1753.36214439452,-1765.88425840641,-1756.91253642866,-1754.03885547916,-1748.2982445501,-1753.96045822024
145,3.04644005617592,9.80955234807334,6.76311229189741,-8.28633231998538,1.52322002808796,-857.473202640249,-1721.7095175724,-1725.5746121447,-1716.50886927519,-1707.00490845816,-1711.87226961629,-1730.35109691124
146,-7.43550937453983,150.008442348102,157.443951722642,-153.726197035372,-3.71775468726992,-750.042040148357,-1657.52803201936,-1643.36171545749,-1641.25179824833,-1642.03501011897,-1643.2102298851,-1656.54337120624
147,4.47506621151115,-41.7085723197961,-46.1836385313072,43.9461054255517,2.23753310575557,-903.952664274548,-1761.72169001779,-1757.12610082049,-1766.92452758015,-1765.67816535136,-1776.64255998944,-1758.84823784395
148,0.0904593587620184,26.6727696767775,26.5823103180155,-26.6275399973965,0.0452296793810092,-988.779770422319,-2004.14185116265,-1994.94495966221,-1987.49913096707,-1992.23300621143,-1996.31066664006,-2002.26439812357
149,-1.87668173079146,241.832708199276,243.709389930067,-242.771049064671,-0.93834086539573,-1024.66555024085,-2293.04049041178,-2291.92197068903,-2303.22615792975,-2288.57839574653,-2290.77110627212,-2289.61757990348
150,-2.12407146100304,17.9003700903268,20.0244415513298,-18.9624058208283,-1.06203573050152,-1545.85630265494,-3111.73704686121,-3112.85375873992,-3101.59735559882,-3087.04449160176,-3107.82105621009,-3106.10448803965
151,0.493055186292622,204.309854841529,203.816799655237,-204.063327248383,0.246527593146311,-1966.01371383939,-4135.84422733402,-4122.23721820998,-4116.65322285434,-4118.40143804246,-4152.94687616918,-4129.13222237764
152,-3.64177884306991,256.023600200802,259.665379043872,-257.844489622337,-1.82088942153496,-2943.02673602688,-6145.71885109763,-6158.63065542447,-6133.42857652943,-6146.3738481148,-6167.69853604099,-6156.12576036452
153,-0.192752858041786,429.493415023811,429.686167881853,-429.589791452832,-0.0963764290208928,-6289.97727138505,-13009.640710652,-13027.7680281073,-12986.7792620591,-13007.5529825217,-13016.5075121285,-13036.8911249873
154,16.9389194412506,358.244729831233,341.305810389982,-349.775270110607,8.46945972062531,-2048.38660297908,-4438.07901634814,-4449.44401818849,-4437.29932878105,-4429.16725158956,-4448.02304836115,-4449.96299218159
155,-3.55546061269706,65.4094623263809,68.964922939078,-67.1871926327294,-1.77773030634853,-835.350487460033,-1739.66589785914,-1745.49435718553,-1741.12099901997,-1729.87153941076,-1737.6728164026,-1753.27905421617
156,-3.13243439962389,130.136989130231,133.269423529855,-131.703206330043,-1.56621719981194,-12.0217016314709,-157.312826792797,-149.492844261084,-157.352531953802,-155.916536995937,-153.603829588508,-160.182230451202
157,5.22265988009167,10.2979600951658,5.07530021507409,-7.68663015511993,2.61132994004583,343.74016869381,682.405037172546,682.836335719301,693.317781575461,682.447745164274,687.798449290276,681.939142757532
158,-10.6144924364344,-116.080084523477,-105.465592087043,110.77283830526,-5.30724621821719,519.698172372562,1144.86193683217,1131.99178735956,1129.4418392411,1135.23174889977,1130.46492021903,1133.71193326602
159,-14.4759505126276,-222.876974919694,-208.401024407067,215.638999663381,-7.2379752563138,570.777914464488,1349.95685333604,1357.67651826699,1346.8208871652,1350.65252502463,1347.65148312721,1356.41988148392
160,-1.97120925915078,-42.6511137555644,-40.6799044964137,41.665509125989,-0.985604629575391,718.336017041438,1477.35193857929,1481.27430722807,1478.8326054097,1478.48509061086,1471.14746322614,1484.65623934811
161,-11.1661362471932,-128.20774456978,-117.041608322586,122.624676446183,-5.5830681235966,672.872337127454,1462.78628257749,1457.80887051372,1448.44596358942,1454.93173974435,1458.466257027,1464.88281710181
162,12.4680574920785,12.2917780003627,-0.176279491715832,-6.05774925432343,6.23402874603926,752.110569802317,1504.39741909635,1519.97808663882,1519.99502449858,1495.34414864576,1520.61067634868,1502.8279246967
163,4.43807926768204,41.0897612409026,36.6516819732205,-38.8707216070616,2.21903963384102,788.149197315957,1539.64671265869,1539.06734910753,1539.61531494229,1546.42246529029,1547.67222201187,1544.09122135036
164,3.42671544998302,141.940149935137,138.513434485154,-140.226792210146,1.71335772499151,858.081409233666,1577.64938398218,1573.53110930446,1577.15613676567,1560.09640805033,1578.77034027412,1582.62483345892
165,3.32133650721516,33.3857310662279,30.0643945590127,-31.7250628126203,1.66066825360758,773.749744314089,1517.43509406917,1524.57361076353,1525.32332125725,1511.06848454496,1513.46843882912,1520.49697814035
166,-8.44194916277775,33.7250221793365,42.1669713421143,-37.9459967607254,-4.22097458138887,778.935346774932,1515.70372220775,1519.75101343371,1510.84573168209,1521.72143635337,1522.76843835143,1518.16292276038
167,1.54181130917277,-134.962553816935,-136.504365126108,135.733459471521,0.770905654586386,643.274537143952,1423.05343941401,1428.27588922667,1442.44070543582,1429.34264766856,1429.02205941218,1439.01848223861
168,3.86080626773764,-636.859892494162,-640.720698761899,638.79029562803,1.93040313386882,281.305020531538,1203.33073982497,1171.02205596707,1183.83480762504,1179.77448975894,1195.86147252482,1188.23522260081
169,-6.98438640654786,-206.52894451574,-199.544558109192,203.036751312466,-3.49219320327393,608.199372809177,1415.94330372754,1421.36063209857,1410.20682072459,1405.20959373715,1407.62428875582,1413.62620413402
170,0.769465954392217,-293.00205811733,-293.771524071723,293.386791094526,0.384732977196109,538.479498960864,1370.73052199345,1363.08122502826,1374.18130015925,1368.92488948916,1372.73139451543,1364.10119170116
171,11.7889285513374,-28.1375715649046,-39.9265001162421,34.0320358405734,5.89446427566872,739.288069845745,1518.50263980773,1528.14518792293,1523.57777249828,1517.45656947387,1514.97009043262,1512.6603212113
172,-1.82895973714767,-101.823291289154,-99.9943315520068,100.908811420581,-0.914479868573835,679.327781973479,1458.64989549897,1474.85973026056,1440.09135383338,1453.33995346734,1457.34493386734,1456.51248215517
173,-3.41998273078934,-15.5491378709849,-12.1291551401955,13.8391465055902,-1.70999136539467,1347.0471620576,2706.22347925539,2685.93089779301,2692.83402586487,2692.94940201472,2707.99328546479,2707.44016199859
174,-2.47635587496916,-83.1522887318861,-80.6759328569169,81.9141107944015,-1.23817793748458,2359.59650664545,4799.86894614782,4821.68857209865,4807.14649469045,4820.43519201115,4822.35154665832,4807.91215662789
175,7.81774909270462,-149.12856846978,-156.946317562484,153.037443016132,3.90887454635231,4059.66605490498,8276.27842737245,8277.89984131785,8283.81337435418,8266.565553008,8285.65761006039,8308.70004257609
176,0.063131645321846,-193.677985383809,-193.741117029131,193.70955120647,0.031565822660923,6947.76925994993,14089.279636929,14069.4809850089,14058.5289308891,14061.8683741686,14089.1716944441,14070.4449693229
177,-6.21144671802176,-179.227752680134,-173.016305962112,176.122029321123,-3.10572335901088,12289.1542466734,24751.3247993089,24772.3963027758,24755.3447946773,24719.5324642465,24761.8694124196,24770.4476014096
178,9.06360458242125,-633.357675680891,-642.421280263312,637.889477972101,4.53180229121062,28849.1399278924,58340.701136048,58359.647402728,58299.4954623929,58261.4841468333,58374.0637690258,58366.4189518097
179,4.84284101810772,-156.775832942047,-161.618673960154,159.197253451101,2.42142050905386,12161.2367207917,24484.0921155436,24490.9639380741,24463.0250481855,24444.6574849421,24480.6946010972,24486.1762641348
180,10.0686966848443,-183.828801992408,-193.897498677252,188.86315033483,5.03434834242216,6712.14676962576,13618.1910379288,13635.4187212833,13608.2969925809,13608.587812886,13646.0364069329,13645.0809960075
181,-2.48160838356125,29.3991782530793,31.8807866366406,-30.6399824448599,-1.24080419178063,3967.57842552834,7903.27606442003,7912.28028455522,7909.4641208963,7894.0781044602,7911.19851884001,7901.96915182853
182,1.6976932422549,-40.035200260143,-41.7328935023979,40.8840468812705,0.84884662112745,2124.97054095134,4291.67397540508,4299.99847232559,4271.73414776661,4285.14947465149,4306.48236352979,4286.63576573125
183,4.53270145403803,-130.852924296807,-135.385625750845,133.119275023826,2.26635072701902,972.158727920163,2079.70308159117,2072.8296459032,2086.29407389814,2083.9571856056,2078.20326931428,2074.25777648919
184,-4.5595674016804,-1.23216395330383,3.32740344837657,-1.04761974753637,-2.2797837008402,470.747431014766,938.167458581156,934.381246914825,921.643870613683,940.644961130485,928.952013613423,943.172646292369
185,2.88571218328434,-208.330521521857,-211.216233705141,209.773377613499,1.44285609164217,304.211412028846,819.639057762834,822.23265580798,823.928059099533,813.302304091078,817.610169546911,828.882404316188
186,-2.83136691863183,-144.034341735649,-141.202974817017,142.618658276333,-1.41568345931591,339.863557808989,820.930090434995,811.430913004122,815.739954611374,815.216802970972,822.876952778926,822.042191403889
187,-4.64287971516023,-11.1370085575618,-6.49412884240155,8.81556869998167,-2.32143985758012,452.859378846115,912.212886534631,909.722777319985,910.279920493602,922.982513270195,928.413641743886,908.048840207368
188,5.68049893155694,-71.1311435329262,-76.8116424644832,73.9713929987047,2.84024946577847,403.088988055271,882.989618575026,878.749070148217,877.374672303471,870.44143583515,871.251750423806,872.705054342165
189,-9.81981788895791,-30.2391149363248,-20.4192970473669,25.3292059918458,-4.90990894447896,422.299313175768,865.017923398904,853.028914285009,864.257105748198,855.298518473544,872.550770627713,869.388791693869
190,1.74182842773735,7.25026675968547,5.50843833194813,-6.3793525458168,0.870914213868673,439.700579741722,873.892721151497,885.939313094044,881.599163968349,883.04091966321,876.885491825844,879.73870786294
191,-2.30388050439069,-63.1962197533576,-60.8923392489669,62.0442795011622,-1.15194025219535,385.204196548686,831.300732346339,840.747888915648,829.502465433878,835.364962697,818.590082943847,834.642177220288
192,0.595447026280453,-89.8671819448355,-90.4626289711159,90.1649054579757,0.297723513140227,365.394879487052,821.25238794522,814.209676240338,801.01810627096,803.234227703157,802.823783540342,814.523560390808
193,5.88815782000893,114.690342921065,108.802185101056,-111.746264011061,2.94407891000446,502.047674883797,895.293164666538,897.114354211109,901.473474117491,885.20160520327,897.761876807141,899.246370904817
194,0.618012352089863,59.1120716256846,58.4940592735948,-58.8030654496397,0.309006176044932,487.664260396487,916.834461519378,913.793443275907,914.261436290282,905.610454819747,912.207656326384,912.60817827718
195,-2.96791752206627,99.2840689089207,102.251986430987,-100.768027669954,-1.48395876103314,491.381468981606,880.510951532226,879.754361671163,890.087535569561,898.500331678457,892.233141781238,887.798307427729
196,-0.528504234214779,-30.4222340471169,-29.8937298129022,30.1579819300096,-0.264252117107389,410.035084428513,849.963898669928,840.237034388963,850.740855448443,853.351703905792,861.738321384008,848.70153944206
197,-6.8946704515547,31.6644456402282,38.5591160917829,-35.1117808660056,-3.44733522577735,430.107103472998,821.655090854212,845.977371136541,836.109521194536,832.003119015309,831.162828853849,831.556156389503
198,-12.1664372643863,-40.8724593327788,-28.7060220683925,34.7892407005857,-6.08321863219317,409.030617186305,846.767256441002,835.036086316919,840.337079793331,846.08196619802,837.874806298467,820.845429953566
199,14.3665038826002,48.3837916741613,34.0172877915611,-41.2005397328612,7.18325194130011,454.501104401919,874.984921012277,875.670194279053,859.578578588262,872.042979719583,872.448723995039,879.666971162602
200,5.33161993918475,109.053304414032,103.721684474847,-106.38749444444,2.66580996959237,492.258104293564,880.79452411228,890.529513861984,894.541083845572,891.516522257967,885.040281784575,897.492171650345
201,-0.142160954826977,-12.8209827866813,-12.6788218318543,12.7499023092678,-0.0710804774134886,400.867954714806,814.414731261466,823.501057454239,814.201212310407,810.8953642048,826.348244990746,810.345265259733
202,4.87647417242988,-84.0139709584182,-88.8904451308481,86.4522080446332,2.43823708621494,314.409526003074,717.709497136995,713.016231704562,725.633486346051,722.485262855975,717.022928823862,718.144057553029
203,-4.62850145404809,-36.722116636025,-32.0936151819769,34.407865909001,-2.31425072702405,354.056931094019,740.207477370015,730.919695826684,727.991703218751,736.958688823215,749.32253531515,738.4270709845
204,-0.154773327783914,-27.9753779095481,-27.8206045817642,27.8979912456562,-0.0773866638919571,357.656448880618,743.133502343,736.812453484628,734.090076676395,721.907554492122,728.164350138133,724.394905521738
205,2.57373149407795,74.0219873551396,71.4482558610616,-72.7351216081006,1.28686574703897,451.103386153904,830.758516446745,841.105950989382,832.122193698277,838.85023738569,835.161018001294,837.856948510889
206,3.00049846095499,15.4655040172511,12.4650055562961,-13.9652547867736,1.50024923047749,385.718596343708,758.972187131119,758.747844719532,749.986758839281,765.10917031928,750.515036690922,757.49808192515
207,-2.73465928080259,78.3543265486369,81.0889858294395,-79.7216561890382,-1.36732964040129,425.593608705138,770.098231580836,767.478380082408,784.804280343466,781.111848001427,773.009595614712,778.328979487385
208,-2.9555262599315,119.166057565773,122.121583825705,-120.643820695739,-1.47776312996575,471.340118357126,820.558652888547,809.310935478832,818.103524305043,816.42007477759,813.36395935624,819.407240810309
209,-12.389026069548,45.5171698309423,57.9061959004903,-51.7116828657163,-6.19451303477399,408.457490108136,759.008784315782,766.159123981139,767.754353367316,755.541113783314,754.08576577995,768.465605617617
210,0.647948055004235,70.4478129649942,69.79986490999,-70.1238389374921,0.323974027502118,407.13840191612,744.476938922249,750.08459592174,750.086501694313,738.046262404037,740.378797416139,756.673594421998
211,-2.02311285131145,-31.6393132772646,-29.6162004259531,30.6277568516089,-1.01155642565573,334.84584550267,699.307891431294,702.313600050373,695.738279930811,704.549766245531,688.921084335278,695.912132199883
212,18.7313646926195,-73.6107054323656,-92.3420701249852,82.9763877786754,9.36568234630977,292.890996187256,678.124062499497,686.176051510294,671.970958949561,659.096590928297,684.10215310182,678.091602287517
213,2.1567251017841,-97.5175138799532,-99.6742389817373,98.5958764308452,1.07836255089205,294.330925005415,688.336088992568,675.183674933534,672.634127252939,679.111709601595,682.813539898372,675.335185128788
214,-5.80556934964261,62.594651615218,68.4002209648606,-65.4974362900393,-2.90278467482131,415.377355248987,762.354489533114,766.927242275939,759.599682765955,761.576811935112,769.552038146969,755.585359728953
215,6.42608371333336,126.819884569588,120.393800856255,-123.606842712921,3.21304185666668,447.199439696749,774.005078537244,785.197000213171,781.863127281831,790.837378416414,793.294999425358,785.891600596282
216,2.75050722772721,74.137026970915,71.3865197431878,-72.7617733570514,1.37525361386361,409.816561115542,748.246602487896,754.293179590255,747.551612553332,760.346509248135,759.116716604651,748.34075427585
217,2.81642931708484,82.5853476541815,79.7689183370967,-81.1771329956391,1.40821465854242,416.952942250675,754.136966164253,745.564293305826,755.376799217658,746.524211605574,760.257633047091,763.079576431337
218,1.9024386863166,283.428189714119,281.525751027802,-282.476970370961,0.9512193431583,553.695939639103,825.866128250404,809.965981576155,811.466789561469,813.469781684136,808.069032123662,809.577652357228
219,-5.70446485449793,95.1869781182322,100.89144297273,-98.0392105454812,-2.85223242724896,412.313532275803,723.735621578875,700.714172953623,714.050128301402,702.196498659789,716.567634015635,700.499589718791
220,2.32307169307023,-164.364234580629,-166.6873062737,165.525770427164,1.16153584653512,210.510928609961,587.709163493622,595.953368270129,593.133045533585,586.331211731682,602.452483310597,590.167339507112
221,-12.2173207151354,77.6719809841888,89.8893016993243,-83.7806413417566,-6.10866035756771,390.103274541107,690.317247382889,719.313313089544,711.552823600767,705.154889816826,703.863611054199,707.839269570686
222,-6.25570598230115,67.3232137767482,73.5789197590493,-70.4510667678987,-3.12785299115058,380.961458047808,688.343996336567,708.085204882897,694.70762001854,688.401328721986,695.460206025047,709.730505478859
223,5.11875493323896,-29.2120347300661,-34.330789663305,31.7714121966856,2.55937746661948,234.393726504175,503.118242671655,496.109602034267,502.935678694426,498.361448273557,507.336057547451,515.240622834768
224,3.54767263447866,-69.6696766755485,-73.2173493100272,71.4435129927879,1.77383631723933,73.0131722575461,219.243693825119,219.097976670426,223.016947823489,233.773001439142,218.712405570375,213.300840345939
225,-2.69049878249643,34.0593560582493,36.7498548407457,-35.4046054494975,-1.34524939124822,-53.4144837102212,-143.578822261188,-133.743004928983,-130.219292929221,-127.528389158455,-132.547914636962,-130.626208614704
226,12.3059279878507,18.6972201458993,6.3912921580486,-12.544256151974,6.15296399392537,-438.60272711271,-883.596746383468,-880.435591690504,-890.498524317605,-887.897064110934,-892.899109881197,-891.122311415733
227,-9.28586690186057,59.7581818826147,69.0440487844753,-64.401115333545,-4.64293345093029,-1058.36454323071,-2185.77313524589,-2198.55269020933,-2181.79300030376,-2175.15673450596,-2187.66690338423,-2192.47015324488
228,-10.8129040617496,-109.600203576032,-98.7872995142825,104.193751545157,-5.40645203087479,-3198.78028124529,-6298.77326297629,-6315.09820213582,-6307.63180858223,-6310.40304500348,-6316.71401566002,-6302.75327092229
229,6.85784346255241,10.4531049802899,3.59526151773753,-7.02418324901373,3.4289217312762,-1579.87784737037,-3163.35095625848,-3167.5921636429,-3170.02265326655,-3166.08151831897,-3166.53594094809,-3171.45640261561
230,8.32127933693118,81.6394230965816,73.3181437596504,-77.478783428116,4.16063966846559,-1099.41086119947,-2272.1398661586,-2241.65369210206,-2265.42545168128,-2247.29153711599,-2239.96653916684,-2260.64488665175
231,-10.0884859552898,50.583337366028,60.6718233213178,-55.6275803436729,-5.0442429776449,-885.268023496508,-1831.20787031433,-1839.62910781466,-1840.84236073471,-1835.06554786721,-1849.04514790655,-1847.94470758995
