sep=, 
EKG Messung vom 28.01.2019 18.31.12
gemessen mit dem EKG Dongle der Hochschule Luzern BAT HS18

 
 , Lead1, Lead2, Lead3, aVR, aVL, aVF, V1, V2, V3, V4, V5, V6
0,-56.2552927814831,167436.711719374,167492.967012155,-167464.839365764,-28.1276463907416,152998.686891125,138504.406770095,138559.124678047,138784.968674857,138711.347429492,138439.858260556,138372.949540505
1,-155.016751155606,461129.253567912,461284.270319068,-461206.76194349,-77.5083755778032,421368.897394251,381453.524469434,381604.545365481,382226.51037059,382023.536921062,381275.559481447,381091.505758097
2,-317.388481937698,943762.590002995,944079.978484932,-943921.284243964,-158.694240968849,862392.704624918,780705.430764904,781014.376633972,782287.857810054,781871.837944883,780341.064055921,779964.483682092
3,-585.387794288574,1741699.52109253,1742284.90888682,-1741992.21498967,-292.693897144287,1591536.33731364,1440787.76574047,1441358.02586058,1443707.80566173,1442939.86081999,1440115.63609557,1439420.28875352
4,-1081.35280108592,3217562.07609927,3218643.42890035,-3218102.75249981,-540.676400542958,2940157.13648509,2661670.84406983,2662724.7447809,2667065.00963047,2665647.09199059,2660429.35287027,2659145.00105234
5,-2645.92226229515,7873622.08462623,7876268.00688853,-7874945.04575738,-1322.96113114757,7194764.76277012,6513261.51865171,6515838.90006129,6526459.35341416,6522991.84711096,6510223.93675984,6507080.26644816
6,-1083.06923770485,3217554.37414795,3218637.44338566,-3218095.9087668,-541.534618852427,2940291.88762474,2661946.33186382,2663009.26388935,2667349.70146791,2665922.20754254,2660699.49089378,2659420.99631329
7,-583.575135453604,1741734.94561064,1742318.52074609,-1742026.73317836,-291.787567726802,1591743.66307523,1441168.80540438,1441732.70745499,1444091.13473692,1443310.82795312,1440498.8126309,1439800.92276449
8,-302.588091836893,943763.785927995,944066.374019832,-943915.079973913,-151.294045918447,862466.737364212,780867.100708592,781185.866236244,782427.589141164,782026.435297015,780515.699085298,780127.43335227
9,-160.073887414008,461138.00520205,461298.079089464,-461218.042145757,-80.036943707004,421464.80052639,381631.521963316,381793.352926665,382403.858828912,382225.422832941,381449.535656245,381281.021738078
10,-54.3534751005063,167436.767061023,167491.120536123,-167463.943798573,-27.1767375502532,153074.701426779,138658.282317435,138695.809529306,138927.936592777,138846.266250841,138587.333682328,138512.695693822
11,2.84950492758071,-65.528482901369,-68.3779878289497,66.9532353651593,1.42475246379036,29.9848714196414,128.347730668233,129.767641399638,132.85307039757,131.971800851024,137.167895864754,126.043683598808
12,0.703441135934554,-13.4928144144651,-14.1962555503997,13.8445349824324,0.351720567967277,57.2464741703297,128.689203891059,133.057557441323,135.712664546125,136.755401274771,134.226511787885,138.376398101944
13,-14.9280880053702,-39.0433014691807,-24.1152134638105,31.5792574664956,-7.46404400268511,69.9794218044553,164.074057072721,174.247256251547,166.835223926028,179.597506684222,165.71314037175,164.322233996441
14,-4.66473651287379,-45.0259979676921,-40.3612614548183,42.6936297112552,-2.33236825643689,142.647631522836,325.656524500489,328.820967991633,334.276507164701,323.513600167731,334.991417988233,324.498596543446
15,14.7682474769244,-118.539314350637,-133.307561827562,125.923438089099,7.38412373846222,180.049441202951,493.406444233464,489.727992571745,484.249741653388,491.898348582326,488.26793879419,484.239232141088
16,10.8664837294491,28.8130080898991,17.94652436045,-23.3797662251745,5.43324186472455,284.189445058,550.432365755551,539.183030460961,541.026996305649,528.823413016798,546.559419188095,545.322879452899
17,3.48192244613892,60.2293099148956,56.7473874687566,-58.4883486918261,1.74096122306946,331.439708227626,606.132028986496,618.170038493205,612.296621695888,607.094699458132,599.295946176368,609.827565099898
18,-1.20818118218449,92.7258864866453,93.9340676688298,-93.3299770777376,-0.604090591092245,308.111748628828,522.289429588825,517.258417291625,519.632858495723,526.044306500757,524.146182330558,521.548301675619
19,-2.25370325156837,152.639001933683,154.892705185252,-153.765853559467,-1.12685162578418,337.884102064883,520.875498944515,511.548943710164,535.515856515907,522.503565106716,519.642210672493,535.022833548166
20,-2.80687930018757,-136.451953869546,-133.645074569358,135.048514219452,-1.40343965009379,107.933852529546,349.512779628451,347.920728033991,342.652344967093,347.753022119345,337.758858639951,351.541719303874
21,-5.33572625924717,108.4285091692,113.764235428447,-111.096372298824,-2.66786312962358,310.551839099571,507.339442770695,504.895013209549,501.360809102829,505.997982104658,523.512068951939,515.630948657839
22,10.7249574323941,-63.3628323615703,-74.0877897939645,68.7253110777674,5.36247871619707,197.432767718565,468.953325231094,472.355300996627,489.370008435741,469.454722273105,467.114948829112,470.781653379585
23,-5.8534220494621,3.72573725739494,9.57915930685704,-6.65244828212599,-2.92671102473105,173.727340689264,337.87552207167,327.454957035749,319.632048275904,339.503245385073,330.186289105593,328.389276411966
24,-4.05813517779461,51.4240470103105,55.4821821881051,-53.4531145992078,-2.02906758889731,-44.769851143792,-145.021884475689,-145.004227702506,-140.54414643324,-134.461954913655,-136.122930642247,-136.757073644316
25,-4.78194423535024,-9.60085654549766,-4.81891231014743,7.20988442782254,-2.39097211767512,-546.222774547336,-1087.62663678452,-1075.51248301673,-1080.72378932955,-1087.81533347318,-1092.78643935209,-1092.0872532475
26,8.74425997817889,-127.808959163202,-136.55321914138,132.181089152291,4.37212998908944,-1346.12444914703,-2555.69567915268,-2554.58666590275,-2561.90344542507,-2556.49446099057,-2558.12197918119,-2569.41742763881
27,-21.2397640659183,-125.811833509913,-104.572069443995,115.191951476954,-10.6198820329591,-2544.60663412539,-4984.64119880678,-4992.85178192239,-4984.4585359655,-4984.60216339421,-4988.64651936799,-4985.01181996887
28,3.09739395111683,-23.1474099532934,-26.2448039044102,24.6961069288518,1.54869697555841,-6495.65725599325,-12965.0697080821,-12963.4257156927,-12948.0592734979,-12937.4646465846,-12970.2480408876,-12969.9988968031
29,9.3026223910565,23.5305766897218,14.2279542986653,-18.8792654941935,4.65131119552825,-3004.23112811199,-6022.69021052265,-6023.40899576666,-6021.03359151413,-6014.98198888023,-6018.60814871872,-6010.7764718316
30,-4.14703967570676,-6.21394077918376,-2.06690110347699,4.14042094133038,-2.07351983785338,-1968.98570794502,-3935.90451478655,-3939.02618325813,-3938.18531467993,-3930.11478572097,-3922.54313209408,-3931.2982416474
31,2.08232144641806,-12.22859071946,-14.3109121658781,13.2697514426691,1.04116072320903,-1415.51046615715,-2816.71002014843,-2817.20850307102,-2814.62319342274,-2820.41107997551,-2824.76502261689,-2826.68313556255
32,9.11979610743583,-116.70362256415,-125.823418671585,121.263520617867,4.55989805371792,-1110.76019523189,-2095.6969717922,-2090.98248765353,-2106.88030313063,-2104.44421479572,-2107.37036120618,-2098.52719953744
33,3.25444852357032,179.422435120854,176.167986597284,-177.795210859069,1.62722426178516,-766.793526570167,-1709.75503973762,-1706.52728303871,-1710.89631491559,-1700.75939468815,-1698.22298647155,-1700.9730939983
34,-10.0082018430694,259.483850484743,269.492052327812,-264.487951406278,-5.0041009215347,-515.917103335116,-1301.32625899804,-1297.82306671076,-1303.6218015117,-1301.97220463914,-1322.27754842213,-1316.25628920941
35,5.40707589066005,588.947299750318,583.540223859658,-586.243761804988,2.70353794533003,-105.138667439911,-793.81755873948,-787.441648677835,-780.044518052659,-780.429082622199,-790.580443105719,-799.001730921445
36,1.00526382401586,222.169050152181,221.163786328165,-221.666418240173,0.502631912007928,-288.138448429541,-797.440683187247,-795.617419306713,-799.643282436737,-793.190341724112,-800.183832991606,-794.227638784563
37,-1.24474649794865,254.769777280482,256.014523778431,-255.392150529457,-0.622373248974327,-331.7871412284,-919.588806235231,-901.392597807921,-882.424480163085,-897.476598033943,-900.343683791667,-893.545625724684
38,2.63794361992041,154.9670511164,152.32910749648,-153.64807930644,1.3189718099602,-453.602405522382,-1059.53391854124,-1073.91843928062,-1083.13013222694,-1071.66573870144,-1068.86840960334,-1068.16198194504
39,-1.04385013732826,-28.4761310516042,-27.4322809142759,27.95420598294,-0.521925068664132,-653.085040511054,-1278.73780010783,-1300.0857857792,-1283.58341590609,-1303.24389552031,-1307.82961155358,-1294.11462056969
40,-8.91277493600501,54.6559018791013,63.5686768151063,-59.1122893471038,-4.4563874680025,-596.25343426544,-1256.07554534599,-1258.91593902343,-1260.93015206323,-1260.76136219775,-1248.92004826557,-1246.28833343968
41,3.87529731329414,16.1692840660689,12.2939867527748,-14.2316354094219,1.93764865664707,-609.870270461528,-1232.03452767583,-1245.59781292564,-1223.78913055098,-1238.10087726466,-1234.36691076666,-1240.51039756907
42,2.09262971949647,-38.0522687779448,-40.1448984974413,39.0985836376931,1.04631485974824,-652.719177521329,-1265.29345654522,-1269.85395138871,-1283.64759320798,-1263.48515329699,-1281.89279639491,-1278.49252837576
43,7.3979162532487,-22.6581955810543,-30.056111834303,26.3571537076787,3.69895812662435,-645.568348239336,-1261.08058464437,-1268.00849986781,-1258.38001767173,-1269.86796792172,-1258.29117634695,-1259.64425209243
44,-7.10741794106434,-21.2887633058999,-14.1813453648356,17.7350543353677,-3.55370897053217,-673.337524366158,-1332.49370336748,-1332.87922496116,-1338.53813257362,-1342.72596941056,-1332.9966731056,-1340.93781146707
45,3.03787724173162,-47.7198272165551,-50.7577044582868,49.2387658374209,1.51893862086581,-703.063375108948,-1355.36904575961,-1354.45982915277,-1338.03344370937,-1335.63136745934,-1334.48666955068,-1338.1422598754
46,-6.25719356240006,71.6678003287525,77.9249938911526,-74.7963971099525,-3.12859678120003,-599.56709468599,-1277.05918326313,-1276.71693497585,-1285.19075094687,-1278.97589053001,-1280.44494605978,-1288.51588022595
47,2.64555656100856,-42.5696523285878,-45.2152088895964,43.8924306090921,1.32277828050428,-711.511046143205,-1377.80688339681,-1369.70469026774,-1365.60082892634,-1359.1626016832,-1364.24470199388,-1377.3296362909
48,-10.4323731743789,-22.6131713721261,-12.1807981977472,17.3969847849366,-5.21618658718944,-682.58701102648,-1352.99322385521,-1359.61983331459,-1356.41012763177,-1352.37705240076,-1355.58084309509,-1359.27875746487
49,0.177775371732423,146.741554459993,146.563779088261,-146.652666774127,0.0888876858662115,-590.740138198729,-1328.04405548572,-1316.71139834623,-1328.7810812828,-1330.49505246233,-1332.8628360694,-1326.04687819743
50,-11.1957036009699,18.8189803550486,30.0146839560184,-24.4168321555335,-5.59785180048493,-697.073501356062,-1424.16168666814,-1429.6787879761,-1433.24111100088,-1413.63037193476,-1431.90111391153,-1429.0660730465
51,-7.53600199570064,60.5842251373106,68.1202271330112,-64.3522261351609,-3.76800099785032,-642.323711284,-1352.76764970101,-1354.90694941088,-1343.82319554532,-1349.24594389362,-1348.50353990195,-1343.85996377983
52,4.48586281339522,143.204743814364,138.718881000968,-140.961812407666,2.24293140669761,-542.607464944711,-1223.93381089039,-1227.85622224299,-1228.25284951681,-1223.1337501636,-1244.72581259729,-1229.2770135694
53,10.0808828625013,-97.3480643116927,-107.428947174194,102.388505742943,5.04044143125066,-658.202471574506,-1208.97599597482,-1200.46822944487,-1194.52289902169,-1198.92398995368,-1204.08623397778,-1203.24345781808
54,6.28488571863272,104.869144007214,98.5842582885816,-101.726701147898,3.14244285931636,-454.159190922554,-1006.90264013369,-1018.03576589577,-1008.51325978257,-1017.70140550754,-1004.1985029926,-1007.09150413368
55,11.2547405664518,25.6216218174086,14.3668812509568,-19.9942515341827,5.6273702832259,-1002.00287450165,-2018.37263025425,-2025.78580497249,-2027.82415442535,-2032.03503968232,-2026.26984387983,-2031.79372861062
56,2.79301424554433,75.2731192853535,72.4801050398091,-73.8766121625813,1.39650712277216,-771.121664259743,-1614.72343355929,-1617.55831408055,-1627.18261791122,-1622.96855089779,-1617.17180542546,-1635.08889021105
57,-0.455537450994598,31.0531404685462,31.5086779195408,-31.2809091940435,-0.227768725497299,-802.337278130857,-1636.18323418126,-1638.06704428222,-1648.00343077094,-1630.20886115413,-1647.58173974237,-1651.0506120561
58,-5.4345635441714,-131.583930188208,-126.149366644036,128.866648416122,-2.7172817720857,-866.096721799244,-1606.04407695445,-1603.94716822557,-1599.4130866531,-1583.76057406276,-1617.97463290213,-1594.40405328808
59,-4.08370572168496,17.8251160682412,21.9088217899262,-19.8669689290837,-2.04185286084248,-709.733728523104,-1441.37627883613,-1425.74913972316,-1427.69187377742,-1435.51627383556,-1431.66951764678,-1435.07523733238
60,0.00336074468214065,129.263587395748,129.260226651066,-129.261907023407,0.00168037234107032,-639.283835218419,-1407.8278970879,-1394.87576143799,-1394.61909224789,-1409.01846721958,-1384.46361391162,-1391.07978921512
61,8.72391768032685,50.4644853089412,41.7405676286144,-46.1025264687778,4.36195884016342,-711.345416695665,-1464.43140101995,-1441.83216149893,-1454.49395030431,-1460.42168575508,-1469.74788245111,-1462.70684207257
62,6.90366984481807,161.04101821949,154.137348374672,-157.589183297081,3.45183492240903,-604.246698479721,-1362.63074533411,-1374.35585280033,-1369.90381230079,-1372.84132788968,-1366.90144632841,-1369.32487330076
63,8.22835122753168,-51.2151544190128,-59.4435056465445,55.3293300327787,4.11417561376584,-810.175043833689,-1560.90658202083,-1563.48203430846,-1562.29154510584,-1556.1241101971,-1561.80698219297,-1543.82714609726
64,-9.2527839547256,-3.57439859429724,5.67838536042836,-1.05199338306556,-4.6263919773628,-763.126431889483,-1531.93124913939,-1540.22448486756,-1542.77934094617,-1543.31288427362,-1530.95752013428,-1525.53355741361
65,-7.1191498611006,45.350282472762,52.4694323338626,-48.9098574033123,-3.5595749305503,-734.204318363831,-1520.87806906152,-1518.73833872529,-1520.47065675774,-1509.96439720187,-1513.58029719591,-1523.15827819885
66,4.71880260002217,-97.3845579214976,-102.10336052152,99.7439592215087,2.35940130001109,-817.994442118681,-1533.88552371584,-1539.33158085361,-1546.88308213637,-1535.18455080379,-1552.93561763651,-1533.69677791616
67,-7.46045886806678,-78.1816549457435,-70.7211960776767,74.4514255117101,-3.73022943403339,-771.014981061191,-1471.30876604471,-1494.023041943,-1472.10504358055,-1474.86638010817,-1474.52197311132,-1469.4880571168
68,-0.854233303864021,37.6008258534712,38.4550591573352,-38.0279425054032,-0.42711665193201,-621.099264968187,-1280.65358909371,-1274.80408080557,-1272.27003960134,-1268.50014805354,-1272.48302611278,-1279.32489926295
69,0.287123236514162,20.7477015245822,20.4605782880681,-20.6041399063251,0.143561618257081,-607.633952947232,-1235.72848418253,-1246.86023925326,-1232.47310009148,-1231.46136963411,-1223.48601029196,-1237.00292704828
70,-3.2474036202475,15.5095707983419,18.7569744185894,-17.1332726084656,-1.62370181012375,-1312.37698006019,-2643.51093453896,-2644.4163808458,-2641.21810470903,-2639.59905084703,-2654.90849402032,-2648.92811908553
71,-2.16898507598671,118.163612343196,120.332597419183,-119.24810488119,-1.08449253799336,-2518.47025545628,-5157.27310833175,-5144.62253595694,-5150.46791684473,-5152.4479152495,-5160.88574410393,-5160.99482736632
72,-10.5217575048737,-5.93948415020714,4.58227335466654,0.678605397770298,-5.26087875243684,-4715.84131193584,-9436.26489722636,-9436.8791699076,-9416.34471328268,-9411.23498141131,-9435.91860369997,-9433.31085681519
73,-1.92399963067146,185.226796963485,187.150796594156,-186.188796778821,-0.96199981533573,-8102.4347322392,-16392.0202610726,-16391.3867053009,-16372.9607484707,-16354.5689541148,-16398.0930080324,-16394.7759108059
74,-5.31678748992272,401.121577931655,406.438365421578,-403.779971676617,-2.65839374496136,-14464.5530162663,-29335.5443979543,-29350.7649514145,-29310.7374236288,-29291.037742093,-29359.5984309755,-29340.8798663405
75,1.89558777635102,749.870128846465,747.974541070114,-748.92233495829,0.947793888175511,-34167.1042547301,-69082.1830505303,-69108.1295279411,-69037.6449597484,-68986.8382107436,-69133.2458761919,-69115.1435869656
76,-6.12219961595838,234.891483710351,241.01368332631,-237.95258351833,-3.06109980797919,-14315.9740630665,-28872.9618094593,-28875.2065095066,-28848.5432398077,-28835.0167417547,-28898.9909902056,-28905.486173211
77,-1.00038344366476,156.582724343141,157.583107786806,-157.082916064974,-0.50019172183238,-7863.85257780533,-15885.2882633975,-15883.4369373138,-15876.7553095055,-15866.4565583761,-15875.2203760994,-15903.7753703601
78,-3.58126656050445,81.5999942682101,85.1812608287146,-83.3906275484624,-1.79063328025222,-4365.254070407,-8815.68940164271,-8826.01280553357,-8833.92486654565,-8822.73411188539,-8839.04043685555,-8827.52083598907
79,-6.24801574097364,61.0038753574772,67.2518910984509,-64.127883227964,-3.12400787048682,-2230.16024788686,-4527.57238687217,-4537.77265470359,-4532.52581223601,-4530.32736637664,-4528.51991301312,-4552.08250931502
80,3.87495637693792,130.589611420699,126.714655043761,-128.65213323223,1.93747818846896,-860.416689445541,-1847.54803393484,-1850.07581552234,-1837.91409709956,-1848.67908673798,-1862.92412559301,-1852.46680229079
81,5.62727685409482,-38.4647594171111,-44.0920362712059,41.2783978441585,2.81363842704741,-214.400575831052,-384.709115390899,-378.647669528757,-385.003499143058,-378.174258233921,-375.281622186565,-363.117954120215
82,-0.813408321409952,-14.5397352996806,-13.7263269782707,14.1330311389756,-0.406704160704976,-175.155083745456,-336.583840512641,-340.683928640414,-338.483571782766,-346.174986598431,-332.356457775342,-332.627541789174
83,-0.876201157516334,-130.747030373052,-129.870829215535,130.308929794293,-0.438100578758167,-288.4747343497,-447.078639483865,-433.146405176696,-435.605913562846,-418.976393840654,-429.113755841623,-416.438774936163
84,-4.36811078581377,-181.826879312866,-177.458768527053,179.642823919959,-2.18405539290688,-354.678153240326,-531.897537953599,-539.818610931397,-525.591347985115,-520.63300027576,-528.525832095213,-525.414312555949
85,-7.86290474137058,-680.826938351995,-672.964033610624,676.895485981309,-3.93145237068529,-717.223915392489,-761.483797174355,-760.36430965917,-764.348156075052,-753.95143123134,-763.352729014005,-756.605644404102
86,10.6306384710188,-262.131015097344,-272.761653568363,267.446334332853,5.31531923550938,-397.663236045191,-522.56481852202,-502.276037408039,-502.482792239171,-517.688837479276,-509.440576333087,-509.145278308686
87,-4.4288407464046,-275.926271799923,-271.497431053518,273.71185142672,-2.2144203732023,-392.811796454873,-514.126161856228,-505.150533327746,-505.632569601497,-518.4446155974,-512.652133607829,-515.808485498914
88,-0.661206895019859,39.5986017109244,40.2598086059443,-39.9292051584343,-0.33060344750993,-140.17870941959,-320.617227445124,-321.505529872142,-323.549782143557,-313.23695636951,-317.145292284695,-331.30887190238
89,5.71683627227321,-61.9014434974524,-67.6182797697256,64.759861633589,2.85841813613661,-176.254930223993,-284.891580678261,-306.327015697025,-304.607626400073,-319.029334755003,-291.977871136914,-303.849300621572
90,0.12622856895905,46.5706658152922,46.4444372463331,-46.5075515308126,0.0631142844795249,-19.1411547690514,-84.7267467844358,-97.8346184352704,-88.1954571986571,-90.4419863695221,-91.7589598502964,-95.7998171686777
91,4.45270365598844,167.100520133972,162.647816477984,-164.874168305978,2.22635182799422,161.021513197571,159.395209917158,175.421434191841,174.06905092363,167.95069423868,156.018038093636,155.007073911984
92,-1.59681240969803,78.2472154689312,79.8440278786293,-79.0456216737803,-0.798406204849016,191.10444226976,302.36485666089,291.295111656829,292.128052969027,292.605308413447,292.986385973432,295.771795983572
93,0.479922698083101,43.5695219137706,43.0895992156875,-43.329560564729,0.23996134904155,193.769626251873,344.449653288058,356.013575355697,356.696535199153,366.364761818113,355.26026802804,348.190195225907
94,10.0628749215393,-105.041290755064,-115.104165676603,110.072728215833,5.03143746076967,50.3412810602167,215.786727797036,197.693360203732,184.672882981715,210.788066623587,217.123112841276,209.271054088022
95,8.31029731276794,-173.509153837047,-181.819451149815,177.664302493431,4.15514865638397,-70.7717217592872,40.2760076312406,42.1975293479918,28.7821378496301,36.671624297509,29.7848341802019,36.4730572147528
96,0.66542674266384,-78.4212439647526,-79.0866707074165,78.7539573360846,0.33271337133192,-67.0541374884342,-55.0216042694519,-38.7488466714276,-50.5479472728912,-55.7782099221949,-51.2009449687903,-45.7439908103261
97,-2.18268623479526,-70.7848840687657,-68.6021978339704,69.6935409513681,-1.09134311739763,-106.867999882466,-145.133801930962,-154.093980243721,-136.279495287337,-149.640708979307,-146.604154530796,-139.074472799577
98,-1.5776772837271,-99.7883761591802,-98.2106988754531,98.9995375173166,-0.788838641863549,-132.13394082796,-166.057182780467,-165.073535297095,-161.754911419353,-176.799186380988,-166.257943286852,-169.377641171159
99,-5.80635777526186,159.914276453317,165.720634228579,-162.817455340948,-2.90317888763093,78.6708696402638,-8.37889494805131,-5.97463235785835,-10.2570764399134,-0.853638229425997,-16.1311599939654,-12.3121374035254
100,0.0129097866010852,10.6795440597052,10.6666342731041,-10.6730891664047,0.00645489330054261,-36.8173492457427,-84.3013327645895,-87.7761286445311,-89.792035776336,-94.8061062641791,-91.1669646727969,-68.8181149995944
101,-1.74162903026445,20.6587333648931,22.4003623951576,-21.5295478800253,-0.870814515132224,-23.537083308649,-69.4745290124556,-64.4890000650776,-64.0328475705173,-71.807463387755,-62.9301882611471,-69.7797917147691
102,8.50082270623534,145.411076079734,136.910253373499,-141.160664726616,4.25041135311767,52.2180289208482,-32.4741955318023,-32.241708128975,-30.2935032095411,-31.9401625689061,-33.2530742927047,-47.2984306932776
103,-8.87166209734278,54.8799626771943,63.751624774537,-59.3157937258657,-4.43583104867139,5.81422027558438,-52.1231842233683,-46.5924442646792,-58.3515165405406,-43.0908194582735,-33.5769788936013,-55.6409185054072
104,2.65856381415506,64.1766093826445,61.5180455684895,-62.847327475567,1.32928190707753,28.9530736931629,-3.61189818216371,-8.6199869804841,-2.20187643179088,2.20221362781012,0.987665803404525,-5.12523966867593
105,3.56113766480121,132.152798480907,128.591660816106,-130.372229648507,1.7805688324006,110.520417413412,92.4491740107187,70.0977603115025,90.2519581749511,89.2731851542194,75.8676529618097,76.6257792596007
106,-8.56388793169754,-49.3062122149568,-40.7423242832592,45.024268249108,-4.28194396584877,12.6949539820635,66.1322322473861,83.6991653770383,68.6569364484749,70.1654940014705,71.8566763096314,76.0599848302372
107,5.87590939781512,62.0957496756746,56.2198402778595,-59.157794976767,2.93795469890756,1098.32804984023,2140.4362594026,2137.88104747146,2149.03886955467,2128.8108383253,2139.96255263369,2139.71668716258
108,-9.1788675354037,-14.0254426229221,-4.84657508751843,9.43600885522028,-4.58943376770185,2746.94181252901,5498.73020014554,5485.41191118062,5488.17631747216,5492.11758325307,5479.09683938182,5509.78209594722
109,10.3126084999822,-33.0666513123724,-43.3792598123546,38.2229555623635,5.15630424999108,5538.38986439514,11120.1589886026,11124.8003825491,11100.0404778211,11098.9706204416,11117.8378276791,11110.1449763842
110,8.38751249836059,-278.428144360514,-286.815656858875,282.621900609694,4.1937562491803,10026.8951620372,20340.6059809332,20350.621259638,20326.9130424183,20305.438909853,20364.6598833413,20350.1176330395
111,5.85091629909584,-386.880266378634,-392.73118267773,389.805724528182,2.92545814954792,18686.815592947,37766.3623685718,37783.8527413464,37755.8322212776,37731.5738923016,37798.4261818043,37794.3380638251
112,-12.6840002133686,-547.799914408883,-535.115914195514,541.457914302198,-6.34200010668428,46171.1366398012,92877.3891937978,92915.2624628727,92826.2936906033,92757.2077557549,92950.2836771471,92921.1241387403
113,5.09729559213156,-296.320182440919,-301.41747803305,298.868830236985,2.54864779606578,19037.3525181866,38376.1225144062,38388.2977767285,38342.3201207946,38332.5900712585,38401.6647225682,38411.5024739729
114,-11.2582156188146,-105.684293332597,-94.4260777137824,100.05518552319,-5.62910780940729,10485.5121910813,21065.4504598764,21083.1132136311,21058.6448520123,21054.1218633892,21094.734051033,21067.2160818177
115,6.4643919171358,-155.73800703467,-162.202398951806,158.970202993238,3.2321959585679,5756.68098326943,11675.5643654907,11685.0256136392,11670.0509322241,11662.9164800411,11687.2988371091,11686.6477539825
116,3.56546906213043,-39.1914904190635,-42.7569594811939,40.9742249501287,1.78273453106522,3008.16239073462,6059.08174095044,6053.6284828473,6067.83652507895,6046.73575174506,6067.01792758924,6066.79482192703
117,2.91770592276589,-43.6461024612654,-46.5638083840313,45.1049554226483,1.45885296138295,1299.37787997065,2645.31956832533,2662.92904270787,2646.75161458776,2639.53964078578,2644.4483749198,2650.94803666839
118,-2.96943566348637,18.7232412818412,21.6926769453275,-20.2079591135844,-1.48471783174318,379.490956938811,737.289236932294,736.995980345469,745.064477985638,726.18094650624,742.047975477239,735.809607931704
119,-5.92777958686929,-116.502473788365,-110.574694201496,113.53858399493,-2.96388979343465,295.529109034673,701.632912270841,698.056354451313,707.871834497171,692.988625494705,695.987070344796,700.222872858518
120,-4.43233262770809,-45.5759261930361,-41.143593565328,43.3597598791821,-2.21616631385405,343.462011281008,728.067616127344,732.610509087564,716.087918510399,734.870140133717,738.980125227914,734.593711717171
121,0.853109244490042,-36.6542956403573,-37.5074048848473,37.0808502626023,0.426554622245021,363.099314523643,763.706033932132,750.947335358942,748.29211139807,757.834875068394,745.742600157624,743.441846466914
122,0.458029799920041,114.115893607785,113.657863807864,-113.886878707825,0.229014899960021,439.620802802703,765.583741797542,769.276969290222,763.681152652774,763.842011728266,773.764578966686,773.543685718818
123,5.34371979680145,-97.503619957075,-102.847339753876,100.175479855476,2.67185989840073,280.90265877168,664.652657297236,660.373221042071,657.309825575649,672.239764239755,662.958502188034,675.242262565182
124,5.0935277598328,-64.5512552842265,-69.6447830440593,67.0980191641429,2.5467638799164,289.813230076819,649.271243197698,631.784252572659,645.69866202207,657.514574752277,644.209204708459,640.580567686353
125,12.3597474687267,4.5486961370334,-7.81105133169331,1.63117759732995,6.17987373436335,310.053192952197,627.917437236087,626.48317665467,638.226651255623,628.642296893173,637.067131419113,628.42747726466
126,0.742578854085878,62.084573018481,61.3419941643951,-61.7132835914381,0.371289427042939,374.222650597701,687.103307031008,693.67908905592,664.999802505336,662.920703476499,669.026660401752,675.14864320631
127,0.64812699900358,-117.231028766808,-117.879155765811,117.55509226631,0.32406349950179,227.149330406406,572.177816578624,570.642272180557,581.807149196946,578.665723392565,577.620736092096,574.069464274042
128,1.54715359691181,22.5871119760559,21.0399583791441,-21.8135351776,0.773576798455906,345.086140712243,669.132323045342,663.502574011334,665.847027707059,665.466126419458,666.079635437636,654.955155277072
129,-11.1189889925008,15.0100825991831,26.1290715916839,-20.5695770954335,-5.55949449625041,353.588285684586,681.047499777487,676.817850253545,670.46043377227,670.425131976808,681.317109486059,673.385649227101
130,-12.4818966257444,161.081533447141,173.563430072885,-167.322481760013,-6.24094831287221,568.561233571934,963.559037070983,958.017329806433,979.84182699502,952.66685548352,971.666857267846,966.128764085413
131,10.2129576289735,21.3543195774546,11.1413619484811,-16.2478407629678,5.10647881448676,642.093591753452,1273.04582155842,1271.36302896854,1271.64259382838,1283.11758078533,1278.22751628736,1286.98212458988
132,-10.2629551997234,-10.0567060567555,0.206249142967863,4.92522845689382,-5.13147759986168,920.360584172493,1840.51491920202,1844.12875430685,1838.23964645952,1839.68276926986,1843.04199126433,1829.81788092025
133,4.18462440700387,110.373621499835,106.188997092831,-108.281309296333,2.09231220350193,1439.06016380023,2771.93133050762,2767.8027512515,2744.43813765948,2761.98616994193,2752.00856662574,2787.18279196974
134,1.03710698502255,-26.8220550313417,-27.8591620163643,27.340608523853,0.518553492511273,2142.79910224037,4313.45736649711,4322.88039869306,4307.25107922303,4318.56155496667,4317.95170791092,4323.49681296456
135,0.455256434826879,-200.153953982604,-200.609210417431,200.381582200018,0.227628217413439,4634.72561153097,9470.06043347938,9475.25991357281,9476.25501507623,9457.66239254258,9483.23518784248,9472.41581073581
136,0.0949355558259413,100.861206815287,100.766271259461,-100.813739037374,0.0474677779129706,1927.66071938931,3754.55516751917,3760.30219349614,3753.62514719571,3760.84295542288,3752.22802762184,3752.24876127444
137,-5.89402659446932,85.1536379373574,91.0476645318267,-88.1006512345921,-2.94701329723466,946.049454239124,1801.05124394642,1796.36762798511,1804.38756829078,1802.20214455031,1805.93389534552,1804.57928087682
138,8.93456921959296,5.40314571361523,-3.53142350597773,-0.935861103818752,4.46728460979648,348.188843197364,699.909109900706,692.808891944936,695.013157739682,689.105182780011,685.560821509338,691.523883419519
139,-8.94366404201719,-34.3503916909976,-25.4067276489805,29.878559669989,-4.47183202100859,-0.840866441300022,23.7249947663804,50.7150283704104,41.6218403587118,24.2208257197344,45.2153529511997,31.1873020140338
140,0.750918779813219,-79.4074551374069,-80.1583739172202,79.7829145273136,0.375459389906609,-255.158054917993,-430.157735918765,-423.973919108365,-410.535605142126,-417.150406202039,-423.221371263178,-406.006263910065
141,0.704074604640482,-121.495526804181,-122.199601408822,121.847564106502,0.352037302320241,-372.408070098798,-622.616538788774,-633.908582413773,-627.643303429562,-617.804637197696,-638.152809624356,-623.242857381352
142,16.5626251517679,-4.16983104229439,-20.7324561940623,12.4511436181783,8.28131257588393,-298.71249035708,-576.692524520098,-571.466682438477,-568.938813232468,-566.422684196965,-574.189428395446,-578.237350109761
143,3.3665340419393,-131.924168563011,-135.290702604951,133.607435583981,1.68326702096965,-401.543299678728,-667.795896752505,-660.775541733019,-676.447013803758,-683.781206209766,-685.404588333506,-682.274508330156
144,-7.82681004822371,2.92463353564381,10.7514435838675,-6.83803855975566,-3.91340502411185,-303.126911317493,-617.005266218854,-632.107749256305,-609.120631930389,-631.916731068341,-609.544402663305,-625.261106512364
145,9.02752760821022,116.471464399132,107.443936790922,-111.957700595027,4.51376380410511,-228.928561919718,-565.301060630358,-559.106186710793,-550.206570023787,-558.392214459251,-553.79033186016,-546.01515256337
146,3.26230145510635,8.23739162681159,4.97509017170523,-6.60624089925841,1.63115072755318,-333.521914332407,-672.018918836518,-675.675627113145,-686.041910837754,-663.838189431088,-678.136144805438,-675.812576660421
147,-3.72595313910278,168.041785817419,171.767738956521,-169.90476238697,-1.86297656955139,-213.110730592569,-597.989200141659,-593.785633408697,-597.510563280055,-597.757969756494,-588.704162424488,-609.220559990121
148,-15.6497070791083,320.310238678911,335.959945758019,-328.135092218465,-7.82485353955417,-92.0493075330742,-520.058560824167,-518.363955864974,-519.53760817679,-512.697835658648,-512.912266868283,-500.936421690392
149,-4.29272070643492,5.43935964087723,9.73208034731215,-7.58571999409469,-2.14636035321746,-332.558053795568,-674.848187938449,-664.150215148751,-670.234958441375,-678.31632301159,-675.773909902375,-672.398112490686
150,1.49118297119276,-235.106735806214,-236.597918777406,235.85232729181,0.745591485596378,-536.010995024611,-835.424071271817,-829.765623321175,-861.650967985101,-835.090710241231,-827.751281166158,-842.094507598464
151,-2.14145979227033,-144.822108740918,-142.680648948648,143.751378844783,-1.07072989613516,-469.259926361643,-795.839203774638,-800.677565926861,-787.8711857936,-801.735758097173,-795.931871379522,-798.126161208231
152,12.8395971256832,-413.40401279871,-426.243609924393,419.823811361552,6.41979856284161,-683.156182087725,-940.068754251057,-953.487096979661,-949.030944139493,-947.993557986512,-951.324025230744,-957.838456573314
153,-4.02259650296764,-209.507543750602,-205.484947247634,207.496245499118,-2.01129825148382,-544.893654445827,-884.302361644019,-902.9766687628,-891.572764554701,-875.390309682494,-880.163287969772,-878.919852196093
154,4.21063414172386,54.4983063542459,50.287672212522,-52.3929892833839,2.10531707086193,-397.564007417081,-845.415687046683,-844.193918616831,-835.980993496196,-843.622017965245,-842.081751565856,-851.233665111795
155,-12.0118549423642,-24.8319285289617,-12.8200735865976,18.8260010577796,-6.00592747118208,-425.379716266514,-837.939358946431,-833.076166173501,-826.628234587464,-838.792251672043,-834.275576859218,-836.16496928464
156,7.15372099675005,-57.1252400325029,-64.278961029253,60.7021005308779,3.57686049837503,-425.64942805421,-787.019895079167,-790.927204298816,-780.666568884655,-791.333333398943,-798.892970613786,-778.732619577495
157,-0.900043808447663,105.693014521152,106.593058329599,-106.143036425376,-0.450021904223831,-273.127541366921,-652.848141063441,-666.72984126638,-649.216386446496,-646.200728350959,-659.16306881819,-647.071238279197
158,-1.50442336735432,104.271913395001,105.776336762356,-105.024125078678,-0.75221168367716,-265.38808122935,-636.552499221056,-625.862911885633,-641.655684526544,-640.545294625656,-639.339208549151,-642.163349526527
159,0.735796168155503,61.2154566142126,60.4796604460571,-60.8475585301348,0.367898084077751,-304.637513717767,-669.754687881592,-661.079107904457,-670.474466378742,-682.414283067192,-669.054717535269,-677.580135169235
160,1.2336239326396,-103.600735972432,-104.834359905071,104.217547938752,0.616811966319801,-454.377613204197,-803.920866503322,-809.135642991489,-818.031904094241,-798.278412318585,-802.134663230187,-803.020321136166
161,-0.219084985146765,-110.477731742052,-110.258646756905,110.368189249479,-0.109542492573382,-470.333172540777,-830.407698324649,-841.073418550252,-837.461188864603,-832.069024172321,-828.262477662938,-831.564097748109
162,-6.69695310053066,135.14337438345,141.84032748398,-138.491850933715,-3.34847655026533,-261.709921868911,-665.260171221802,-664.198326779442,-653.226081254659,-658.390592782816,-664.020805573819,-656.062436883309
163,-2.94997980014887,31.3211030041275,34.2710828042764,-32.7960929042019,-1.47498990007443,-358.016937377033,-750.304957558343,-768.896788464161,-751.992866331857,-759.516946524935,-755.967052372813,-762.339485499222
164,6.12162764076493,24.666011123918,18.5443834831531,-21.6051973035355,3.06081382038246,-393.378839432626,-805.302062348404,-810.206531103933,-804.505258619291,-795.127104966639,-798.735193543864,-819.885170451627
165,-7.60847927056602,18.1542917473998,25.7627710179659,-21.9585313826829,-3.80423963528301,-406.400079448751,-838.562929915468,-832.508925990551,-831.70548337308,-826.237051107804,-833.808797599399,-826.804998331354
166,-0.451719005010091,55.9731928796391,56.4249118846492,-56.1990523821441,-0.225859502505045,-406.173478529774,-868.771868944197,-850.268123300193,-853.389305786026,-841.677170092007,-848.970334959246,-860.984463197878
167,6.84278835364967,-35.8119204073737,-42.6547087610234,39.2333145841985,3.42139417682483,-496.624153258657,-950.593597756291,-949.419871732884,-933.869395665941,-936.763825997128,-953.424027751666,-946.724499681033
168,0.279415253578918,11.1734970925027,10.8940818389237,-11.0337894657132,0.139707626789459,-471.542274677151,-953.978631193226,-956.528882366663,-953.486722853326,-945.537505237793,-969.744150094019,-962.070385375409
169,15.293923482328,-94.4645647591678,-109.758488241496,102.111526500332,7.64696174116398,-582.608371324328,-1055.45825440716,-1060.64564830001,-1068.6694030464,-1062.95299062793,-1058.60699292278,-1059.85020226953
170,-12.8724044752307,-64.2768552495982,-51.4044507743674,57.8406530119828,-6.43620223761536,-540.389610128579,-1029.37476948279,-1011.10792321045,-1018.88181255633,-1026.76712109466,-1029.38334667534,-1027.78795428525
171,-3.68124117021216,-56.4346723228518,-52.7534311526397,54.5940517377458,-1.84062058510608,-547.317257306335,-1041.88108346003,-1034.97718443611,-1060.42281810837,-1062.30525265358,-1054.56100632314,-1059.26808886946
172,-6.56348235809128,1.86675851995824,8.43024087804952,-5.14849969900388,-3.28174117904564,-494.383712980445,-997.19766683894,-992.06432887647,-988.549371473637,-997.062073089648,-994.48049854819,-985.088563074271
173,2.78088934917469,-15.1511067821411,-17.9319961313158,16.5415514567285,1.39044467458734,-526.56355757112,-1035.19511901092,-1057.39564489425,-1054.88362514271,-1054.69634161473,-1050.85452914724,-1049.01830811889
174,0.364101051731268,-107.99522321354,-108.359324265271,108.177273739406,0.182050525865634,-617.934570629412,-1127.50981699355,-1099.21931179942,-1117.04498764052,-1125.15416120458,-1114.69180865001,-1113.81609138331
175,-1.90515516581945,-204.747144876252,-202.841989710432,203.794567293342,-0.952577582909726,-681.872441329077,-1160.90289294772,-1174.13302154915,-1165.44526887519,-1159.1610127755,-1161.68077933282,-1166.53052758271
176,7.08468120597536,103.773554099025,96.6888728930498,-100.231213496038,3.54234060298768,-450.193397727824,-997.075668348698,-1010.06597242347,-1000.54403098987,-998.008546262776,-994.605493511015,-997.302188257076
177,8.19936112093274,174.795077828487,166.595716707554,-170.69539726802,4.09968056046637,-1218.3599959703,-2603.31570864815,-2608.43155355798,-2590.16115152606,-2593.41951350309,-2608.04180074015,-2599.64520713608
178,-4.99488983664196,145.299106226565,150.293996063207,-147.796551144886,-2.49744491832098,-2665.25155467553,-5480.79710541427,-5480.66461843246,-5486.98732252006,-5486.58654407671,-5493.90457231537,-5481.78443583258
179,3.56162552163005,46.0584236361319,42.4967981145019,-44.2776108753169,1.78081276081502,-5119.87940251858,-10282.2556031517,-10282.0164763751,-10263.6824117581,-10251.30967348,-10275.9449076481,-10277.1054278352
180,-4.61804343419499,239.426790401805,244.044833836,-241.735812118903,-2.30902171709749,-8862.8760500541,-17969.7969339442,-17969.9477165842,-17972.8983900425,-17949.8263494731,-17987.4971835161,-17988.25303405
181,5.3050205365289,463.74265866846,458.437638131931,-461.090148400195,2.65251026826445,-15904.3503387219,-32267.1383155757,-32288.6496392829,-32256.6465810823,-32204.3282388649,-32282.1742435725,-32282.8689364195
182,1.15297958935844,960.939152805135,959.786173215776,-960.362663010455,0.576489794679219,-38251.1454826732,-77462.0771385622,-77508.2797396193,-77425.4957092431,-77384.913363472,-77520.3495969669,-77512.5789589844
183,-10.2975944969803,363.376490444149,373.674084941129,-368.525287692639,-5.14879724849015,-16002.8391489652,-32379.3523828715,-32369.8472518882,-32357.3233855448,-32340.3620598489,-32407.2524861964,-32395.6572840007
184,3.99579053279012,57.5309258082998,53.5351352755097,-55.5330305419047,1.99789526639506,-9044.07201083195,-18141.6791569394,-18129.5345295532,-18112.9828947454,-18101.0735296172,-18133.0782878499,-18130.9913333896
185,-3.22067058144603,65.992578684818,69.213249266264,-67.602913975541,-1.61033529072301,-5130.14712117652,-10329.5074916193,-10328.115860645,-10316.065696241,-10311.1639959025,-10323.045232357,-10323.6710394411
186,-14.5476730945229,66.1191230951226,80.6667961896455,-73.3929596423841,-7.27383654726145,-2758.0742084174,-5596.81521302444,-5616.67359985551,-5596.20412116731,-5597.57986528022,-5612.99063686372,-5615.46791473607
187,-4.6264905516291,-82.8387843367818,-78.2122937851527,80.5255390609673,-2.31324527581455,-1462.85737258148,-2847.5024513778,-2852.38251451324,-2837.11450141802,-2853.26105578436,-2856.50828103436,-2856.37150089641
188,5.93799139288603,-122.85811185537,-128.796103248256,125.827107551813,2.96899569644302,-662.726682573091,-1196.65726189793,-1204.67568399536,-1187.42733653638,-1197.52927046482,-1211.85392895358,-1206.129717592
189,-5.20535599871073,95.5367895222153,100.742145520926,-98.1394675215706,-2.60267799935536,-507.241960360523,-1115.22606624197,-1112.65217239448,-1117.47436445835,-1089.88910663745,-1115.29385001879,-1116.0413288397
190,6.24544200953096,-95.0356896748126,-101.281131684344,98.1584106795781,3.12272100476548,-635.042766350249,-1168.80440101615,-1160.16904371703,-1176.43594672228,-1164.968931604,-1172.08835764922,-1175.53594030777
191,0.411354578885948,131.128204589622,130.716850010736,-130.922527300179,0.205677289442974,-453.610496761001,-1037.93784353274,-1029.82372805453,-1046.49376293432,-1036.44180569291,-1030.60641393866,-1042.81612834198
192,0.767645525949774,79.0346905245096,78.2670449985599,-78.6508677615348,0.383822762974887,-499.69730356567,-1077.6616521299,-1075.76901128513,-1060.72782418499,-1083.72722262482,-1069.33459792938,-1070.47088137668
193,9.34606675212854,-28.5610851243255,-37.907151876454,33.2341185003897,4.67303337606427,-570.620285941419,-1103.33342000638,-1100.09033670885,-1112.56373392331,-1113.05462044245,-1115.1481360367,-1110.83883951715
194,7.53446863018326,-30.8989365225716,-38.4334051527549,34.6661708376632,3.76723431509163,-561.986776522477,-1085.5401478922,-1082.83318339096,-1084.93844955231,-1083.0965008355,-1093.15679692652,-1086.29489111484
195,-8.33086939988425,59.6208823018242,67.9517517017084,-63.7863170017663,-4.16543469994213,-482.016447283211,-1031.98464626813,-1020.88320144502,-1036.71804140965,-1032.20213148525,-1018.60094781709,-1024.56183100835
196,-3.66557616615319,129.968330622331,133.633906788484,-131.801118705407,-1.83278808307659,-430.975190603946,-995.584287996375,-1003.60857384998,-981.143793233932,-997.686912690755,-985.126657840417,-1000.93027418337
197,1.6271532161918,205.463849970256,203.836696754064,-204.65027336216,0.8135766080959,-345.406093888552,-894.648884531169,-913.070573161502,-900.500926270091,-894.121747468773,-908.384721556678,-890.354848286865
198,2.90582405819441,-7.55817106255563,-10.46399512075,9.01108309165284,1.45291202909721,-505.487676373974,-1000.5113576272,-1025.53445360379,-1000.31488942273,-1010.55846924614,-1020.30035200398,-1002.99764430473
199,14.6756269900361,139.503002670419,124.827375680383,-132.165189175401,7.33781349501805,-392.964108063796,-910.755591807974,-915.238745443465,-907.1799261368,-906.401119121001,-901.848128094571,-903.668430823484
200,-9.15701866443851,127.948548476386,137.105567140825,-132.527057808606,-4.57850933221926,-384.30046106306,-905.706489266944,-910.872083240858,-903.402289042686,-909.10000633882,-888.537541597587,-892.337003896013
201,-4.55057057397789,178.495621237671,183.046191811649,-180.77090652466,-2.27528528698895,-353.371519920503,-889.789231652656,-878.953337307525,-878.783013295266,-875.178514585074,-893.121875758603,-881.344429543213
202,6.91621488434612,346.501823207538,339.585608323192,-343.043715765365,3.45810744217306,-203.900669863622,-747.386948050436,-738.201174039976,-748.599849012127,-723.833221272129,-759.720670873328,-741.417601636873
203,-9.35871303002932,150.426966400904,159.785679430934,-155.106322915919,-4.67935651501466,-336.027514420581,-831.840708272095,-810.913989950001,-824.618356437917,-812.492876792472,-820.640864516055,-833.598397803667
204,-5.81977680223645,231.421047596377,237.240824398614,-234.330935997496,-2.90988840111822,-266.58171577967,-770.404255957954,-782.584871730185,-790.340792645351,-786.048929891025,-785.606327154645,-780.582614085142
205,3.40059731667861,-76.4823435070284,-79.882940823707,78.1826421653677,1.70029865833931,-505.963197500954,-932.043454178202,-939.723816545826,-931.651816120895,-935.229866602022,-935.64491068272,-938.86739759089
206,8.39463597661234,15.9533710230025,7.55873504639021,-11.7560530346964,4.19731798830617,-442.563634858059,-892.686004762509,-913.473536030215,-895.723139832495,-907.446467840549,-900.605856384616,-919.640905673412
207,8.59088820591569,-143.755642319971,-152.346530525887,148.051086422929,4.29544410295784,-600.657647464686,-1048.96876440349,-1066.3700105926,-1045.31275276741,-1042.81788092622,-1038.58868099973,-1047.11043189606
208,2.49242039260571,-104.568692626315,-107.061113018921,105.814902822618,1.24621019630285,-620.216612249467,-1133.37211148001,-1107.0059705523,-1125.82530531174,-1108.77892499187,-1127.95660118124,-1112.72973087084
209,0.228165519889444,9.48052898613969,9.25236346625024,-9.36644622619497,0.114082759944722,-610.261846296999,-1229.77605606025,-1228.47707330564,-1220.90202670768,-1235.74736282602,-1239.94744546612,-1244.28093392358
210,-2.1714176684327,-163.630781753163,-161.459364084731,162.545072918947,-1.08570883421635,-886.726551852829,-1611.99373962093,-1623.72804530256,-1617.82511281292,-1623.3328629919,-1623.28780779839,-1621.38754372316
211,13.7162383599207,-312.306503353466,-326.022741713386,319.164622533426,6.85811917996034,-1353.54356525309,-2381.06438879279,-2377.14051784499,-2375.55974687688,-2363.10971891769,-2374.52245031454,-2361.73335655901
212,-12.7682632794895,-540.321984115464,-527.553720835975,533.937852475719,-6.38413163974474,-2556.13999007789,-4584.72625931981,-4583.62250046618,-4564.16263491556,-4577.44719011121,-4576.60129199293,-4576.7807862536
213,-10.3449770157458,-169.736290839617,-159.391313823871,164.563802331744,-5.17248850787291,-1114.28909268987,-2069.18687155587,-2062.49163972223,-2066.55981124166,-2054.82117313193,-2072.02019632724,-2068.58111865097
214,-11.9023764677695,-25.7587493055325,-13.856372837763,19.8075610716478,-5.95118823388475,-622.933609618762,-1232.01084639976,-1235.62784024797,-1216.97034195482,-1228.35025694495,-1234.86798302902,-1227.99289821388
215,-2.8733437032206,-171.714788687852,-168.841444984631,170.278116836242,-1.4366718516103,-545.915187395294,-922.988929805957,-915.45337536349,-934.429536746058,-939.402513824811,-925.808771927404,-925.53405858262
216,0.503912809013855,-36.8600314965588,-37.3639443055727,37.1119879010657,0.251956404506927,-349.840616301924,-662.317288298276,-658.707908247947,-662.503973935847,-653.862701313832,-665.182705082028,-666.377448322426
217,7.80196661473019,127.587580365478,119.785613750748,-123.686597058113,3.9009833073651,-155.439158662673,-430.663931076095,-415.333033852628,-435.436201669043,-426.1040265591,-426.843816124776,-430.583210583776
218,5.4173726842273,3.6669418902311,-1.7504307939962,-0.95825554811745,2.70868634211365,-204.079951636246,-406.409472478495,-418.330313083861,-402.425004671823,-408.698060701601,-396.028924859304,-404.670281275845
219,10.8817633715516,-14.139889242535,-25.0216526140866,19.5807709283108,5.44088168577582,-210.490653417699,-395.959654221311,-411.01514117964,-404.998416911054,-400.612366813031,-405.874315886002,-403.371329704038
220,5.83763830657699,74.8901861090562,69.0525478024792,-71.9713669557677,2.9188191532885,-139.775850297636,-348.604248397751,-342.937561066705,-346.920287145243,-336.545445844997,-347.898975374526,-350.115872544295
221,-7.94117182967602,-36.542229722807,-28.6010578931309,32.5716438079689,-3.97058591483801,-200.903790680662,-373.206523468194,-370.249402758403,-373.525984279026,-371.414164932299,-374.504892939498,-373.99114109599
222,0.819675558246672,-68.1214740166906,-68.9411495749373,68.531311795814,0.409837779123336,-205.189536212434,-341.437922849931,-351.984070443548,-355.723471432371,-346.780312832008,-356.336060310277,-352.111736913939
223,6.01292045682203,-17.2391207822366,-23.2520412390586,20.2455810106476,3.00646022841102,-192.208195765343,-361.164350291627,-353.862297918036,-362.331717585184,-364.563050111203,-365.037280738441,-365.816985454381
224,2.00269974014373,-84.6008657900675,-86.6035655302112,85.6022156601393,1.00134987007186,-207.237969840746,-327.87237415128,-324.664390622755,-309.796373234421,-326.610807404359,-331.337782381015,-328.368363432994
225,7.69790592044592,-255.754685294378,-263.452591214824,259.603638254601,3.84895296022296,-326.136971992149,-388.821352769475,-394.168227034243,-389.948831817776,-407.401525255234,-381.687044940336,-395.510758692748
226,2.47129605867667,12.135319676745,9.66402361806831,-10.8996716474066,1.23564802933834,-101.790532893661,-213.245089405391,-205.495381419925,-222.645482714492,-212.117575988814,-213.516893895168,-218.04061673244
227,-8.3689676746144,34.052799158846,42.4217668334604,-38.2372829961532,-4.1844838373072,-63.8563423026353,-170.134451438731,-168.275916610699,-165.832723420463,-167.033165031549,-170.709425384237,-158.807001483598
228,-6.82704957664828,109.743264426768,116.570314003417,-113.156789215092,-3.41352478832414,-16.0237169604807,-148.617747924378,-161.901011671929,-151.891254191782,-157.193476749555,-156.041499292449,-155.791536279168
229,0.337814890721347,50.8110232229228,50.4732083322015,-50.6421157775621,0.168907445360674,-45.8374284184974,-142.148065169196,-152.977023839485,-141.416387682053,-144.075945126213,-152.844209884119,-140.888106044033
230,-3.44294888566947,264.490636770846,267.933585656516,-266.212111213681,-1.72147444283473,580.82310126863,893.712616880744,878.90625475999,886.816792032274,888.144171886321,894.988671965606,895.597079210362
231,2.15489481034456,254.237038340594,252.08214353025,-253.159590935422,1.07744740517228,1385.76264866559,2519.44315380094,2541.52340483177,2535.23677099083,2524.76235567467,2535.95289558696,2529.2111365677
232,9.39398285932839,290.012555936701,280.618573077372,-285.315564507036,4.69699142966419,2725.5232807389,5170.42798840042,5169.70998382696,5166.47488084994,5170.24421653154,5180.45787225835,5168.13136653302
233,12.5199164628866,50.0220681320643,37.5021516691777,-43.762109900621,6.25995823144331,4702.82400068585,9368.14584970253,9368.64230483273,9366.21927271961,9367.59501714201,9391.35482493381,9386.46294884331
234,-4.49766300825286,82.7058453181526,87.2035083264054,-84.954676822279,-2.24883150412643,8719.77177235251,17352.3400363786,17374.5652128036,17345.5626346176,17322.0555088978,17359.1734915104,17361.6181344565
235,-4.32623337948462,-431.053805897798,-426.727572518314,428.890689208056,-2.16311668974231,20834.4458837305,42095.6193399793,42118.0810716293,42073.21921124,42044.1844499695,42115.3514093644,42118.7301157666
236,-2.72930512882886,-243.197226276447,-240.467921147618,241.832573712032,-1.36465256441443,8831.45726939054,17903.3824599287,17904.6526647938,17879.903385731,17873.0881655987,17917.9638667409,17900.404364419
237,4.28299948439235,-103.529878701054,-107.812878185447,105.67137844325,2.14149974219617,5084.91187391165,10277.6366260088,10277.8453114307,10266.8258102345,10261.4169784787,10277.5459055327,10284.4232480601
238,-11.5724437180615,-98.7339054393524,-87.1614617212908,92.9476835803216,-5.78622185903077,3038.31643717038,6163.79433606204,6168.49094899357,6170.57540438886,6154.82102720445,6160.57543948051,6173.09689061868
239,1.13876553231967,-91.4445811662881,-92.5833466986078,92.013963932448,0.569382766159833,1753.35033335973,3599.28401341807,3608.41720632941,3601.18040473972,3609.46182430483,3616.69254323724,3600.00717088781
240,9.92168716553715,-74.2502393040049,-84.1719264695421,79.2110828867735,4.96084358276858,991.318981787219,2066.80989004398,2069.25595827398,2080.89896713258,2077.92391545151,2064.41806791711,2067.79942304714
241,-8.28824690726469,-26.0439781363821,-17.7557312291174,21.8998546827497,-4.14412345363235,617.775949878385,1253.30763098589,1237.43283382978,1247.69785026083,1265.61331008581,1263.18886858801,1255.05863169642
242,-1.17879175525741,-3.37224734740448,-2.19345559214707,2.78285146977578,-0.589395877628704,632.466803813848,1267.12706321984,1268.9645271379,1268.48624070681,1278.85205622404,1284.12725383777,1279.28307948192
243,-0.988066687830724,131.653058234166,132.641124921996,-132.147091578081,-0.494033343915362,724.910386705538,1317.17964848908,1332.73995521839,1320.83040324665,1323.92523027057,1326.08553118209,1319.82392098833
244,9.07288784629782,77.7092437631218,68.636355916824,-73.1727998399729,4.53644392314891,695.151485690585,1321.66661546435,1315.93832375933,1314.24953458592,1292.97671683275,1311.82781717263,1313.5381651544
245,12.2847854678403,60.4321402396017,48.1473547717615,-54.2897475056816,6.14239273392013,667.670083741468,1287.19281271118,1265.58179321876,1269.76995523975,1259.28147223586,1278.28016749216,1281.30379102781
246,-10.5695176138252,12.3109460340638,22.880463647889,-17.5957048409764,-5.28475880691258,655.424102367499,1287.96774108711,1295.53196944183,1274.38964017603,1287.61856931527,1277.99764483166,1297.13521364765
247,6.62897888079169,-86.9822245613905,-93.6112034421822,90.2967140017863,3.31448944039585,566.017228191573,1225.64565982533,1209.47072609223,1218.75261894186,1229.33045707952,1222.83065074077,1229.76413974247
248,4.8831898952194,112.867280904291,107.984091009072,-110.425685956681,2.4415949476097,701.287302831974,1294.59051465488,1301.62618595365,1285.44276763804,1286.45239749271,1291.14706021681,1288.70604516062
249,-9.57107123243622,54.6157283731445,64.1867996055807,-59.4012639893626,-4.78553561621811,670.790843551615,1277.39488749765,1270.69897703477,1279.40400087851,1273.96876401341,1271.96170723377,1274.07439023987
250,-9.75670529151103,-6.81441036690376,2.94229492460727,1.93605772114825,-4.87835264575551,631.88479845415,1260.82730198369,1277.47728269096,1267.66385867898,1269.39030761091,1263.41845042858,1267.09101040897
251,-2.51075736124767,-32.7265090993023,-30.2157517380547,31.4711304186785,-1.25537868062383,597.331336252493,1224.87842424304,1227.98573425921,1246.94954872786,1232.38886324427,1232.27342939912,1225.82249238651
252,-2.93616404177737,51.726777652133,54.6629416939104,-53.1948596730217,-1.46808202088869,679.503176930666,1304.34341216742,1304.5468933013,1300.52639081609,1282.69063565478,1299.35034986259,1297.83161176607
253,-5.34393331367755,217.420803958492,222.764737272169,-220.092770615331,-2.67196665683878,790.104655386764,1357.44457350136,1346.1196570569,1354.98723865251,1351.25032587384,1358.13199714411,1365.21420404513
254,-0.34795628208667,-445.782167345402,-445.434211063315,445.608189204359,-0.173978141043335,23873.9470707732,48193.3283526098,48195.5817589476,48149.2218807118,48119.7502855924,48189.8210732802,48201.750620568
255,11.539655236993,-235.74134145421,-247.280996691203,241.511169072706,5.76982761849649,9901.11029933997,20049.5015953711,20062.19642568,20046.5299480661,20036.4067779734,20088.8821721971,20077.0329485943
256,-12.0713687998068,-139.295947278501,-127.224578478694,133.260262878597,-6.0356843999034,5503.62720812799,11134.4789947347,11134.7951214414,11133.7603534975,11120.6596417148,11148.3695836103,11138.2160852998
257,8.99049229087541,-8.18430070122122,-17.1747929920966,12.6795468466589,4.4952461454377,3168.15392019406,6353.48263338022,6368.42452307136,6364.75790877652,6354.50938629897,6365.65567416375,6358.43785214008
258,2.65512049160316,-116.172672973829,-118.827793465432,117.500233219631,1.32756024580158,1608.83581240184,3336.49941826912,3328.02102544758,3341.16925364602,3333.63130593929,3340.3759992967,3339.40377187059
259,-6.7341302332934,177.756476310315,184.490606543608,-181.123541426961,-3.3670651166467,955.232934295171,1725.97526204673,1752.71884677894,1732.92054926252,1729.82657188491,1730.11016334055,1739.20654627591
260,3.26811528619146,132.66647430358,129.398359017388,-131.032416660484,1.63405764309573,401.423464068706,673.448569120024,677.306211725256,678.887250680535,683.804335846828,682.319732936332,684.670372236549
261,9.36364802252501,198.347470347711,188.983822325186,-193.665646336449,4.68182401126251,438.23414733856,687.484472351935,698.559638759732,685.559969541238,692.010186256812,701.500821835769,681.045291140967
262,0.832285729702562,-39.9877229465055,-40.8200086762081,40.4038658113568,0.416142864851281,239.865664834186,520.55133834458,528.329349155625,522.263690832595,518.886172680563,533.72764486188,533.338018351205
263,-4.45939628785709,-22.5220819197712,-18.0626856319141,20.2923837758426,-2.22969814392854,253.520378811852,525.103443255619,527.712538382504,532.429845582577,508.533121347136,514.348149303958,534.836496525939
264,-1.69608653735486,82.5029920974339,84.1990786347887,-83.3510353661113,-0.848043268677429,314.062970639643,543.926862644497,534.052813812217,523.721957967238,531.200686363387,542.161543327878,540.741238019895
265,-3.48620436922647,-39.3038088093745,-35.817604440148,37.5607066247612,-1.74310218461324,260.594048178289,557.005700796726,534.898984640691,535.846954607521,542.603955542756,551.370482942555,549.95360343362
266,-3.54260590701597,92.337101227924,95.87970713494,-94.108404181432,-1.77130295350798,371.866575538996,647.853443943051,644.787997404957,654.651479392574,644.022341857286,635.022366313526,630.233865897404
267,6.70927393384045,-39.5995673603902,-46.3088412942307,42.9542043273104,3.35463696692022,234.974290389364,516.257422072958,528.577921743854,519.247044763208,530.419964362751,524.562654592475,516.373108195432
268,1.35175850763335,-47.0558769163035,-48.4076354239369,47.7317561701202,0.675879253816674,248.045067456798,544.497770337533,530.858312493277,521.288281604648,532.436269729689,527.230545510072,521.761496776599
269,-6.21512204996543,7.79450038529467,14.0096224352601,-10.9020614102774,-3.10756102498272,287.80362907931,561.597635723359,550.574210209015,551.707176760916,557.514781832317,559.483496051835,555.18612001781
270,2.74111535280827,-1.95260723948013,-4.6937225922884,3.32316491588426,1.37055767640413,268.802558615105,542.298839822499,548.317958637956,558.945686838502,555.970460850309,539.494905959698,544.213801413949
271,-9.1292199989548,11.44406053485,20.5732805338048,-16.0086705343274,-4.5646099994774,272.385668897259,524.198057260714,530.196870711487,544.064904729545,528.281522261765,540.791147846234,530.105210349866
272,-2.49144639918813,-8.682146266161,-6.19069986697286,7.43642306656693,-1.24572319959407,237.851816761497,481.894333389966,499.079677415197,487.188230812491,480.073369637714,479.650189394219,499.980142990767
273,9.02840302922414,-158.535346720892,-167.563749750116,163.049548235504,4.51420151461207,130.065110464464,427.693970679044,411.178068333655,428.145041418,417.994427294936,438.448228458059,426.415275516367
274,5.27438806509599,-24.7004737680836,-29.9748618331796,27.3376678006316,2.637194032548,241.072960397825,512.12078262883,516.990796458442,521.930320939166,533.19798966957,518.597368024901,514.45029004282
275,-0.164401507703587,-280.102838901104,-279.938437393401,280.020638147253,-0.0822007538517937,24.6710320541024,329.280501501606,340.98436908907,342.274089716258,357.796796681097,329.725834815297,338.523132955219
276,-1.33336381113622,3.42948832630645,4.76285213744268,-4.09617023187457,-0.666681905568112,265.126714049751,525.49057596206,528.093052457378,510.669174162846,504.242142568517,520.931227804453,516.707809016953
277,-6.37907311445451,84.1721420144022,90.5512151288567,-87.3616785716295,-3.18953655722726,317.906320796625,545.261426464393,543.803911859228,526.605746879039,544.336552866414,532.182754002599,531.34846991091
278,-9.37974407244474,148.810168561875,158.18991263432,-153.500040598097,-4.68987203622237,377.382931496526,596.575950358732,583.068553889549,594.256470510794,581.680488180165,592.900731064787,592.841848418
279,9.63898053157027,210.615873849165,200.976893317595,-205.79638358338,4.81949026578513,382.042146691776,563.107400065957,560.54781925815,562.170718691428,574.937864402338,559.991104223445,576.293495553313
280,1.01290718012024,189.136980768002,188.124073587882,-188.630527177942,0.506453590060119,378.112947063506,568.10182053913,569.36820140385,578.039746932685,566.573060200055,557.348521055887,567.119291704294
281,-0.581558276637224,28.9427411991346,29.5242994757718,-29.2335203374532,-0.290779138318612,238.464735189569,447.405170903367,456.54300057888,449.608181349351,452.752796609682,448.97119708918,445.905134169851
282,4.81340758892475,34.2975255782367,29.4841179893119,-31.8908217837743,2.40670379446237,261.367328787674,493.250539586035,475.946777376084,487.018366431963,478.459335921129,500.656003670243,495.313063668204
283,3.24024640957941,-67.2765896838682,-70.5168360934476,68.8967128886579,1.62012320478971,165.555194395347,401.627224884141,400.457906515163,401.913973794872,402.729328211164,393.831028383633,401.810137876018
284,3.02757813196513,-109.914271123416,-112.941849255381,111.428060189399,1.51378906598256,117.283648895755,347.509147046891,350.750317637547,337.871065305459,347.69636973372,365.745169655565,347.76232510843
285,-16.0696146636328,-39.0955368344439,-23.0259221708111,31.0607295026275,-8.03480733181641,190.190918786335,403.407759743481,397.072575850238,409.850342237769,389.04321926774,411.129838270281,404.446058448986
286,2.79967121157097,24.1350878611556,21.3354166495847,-22.7352522553701,1.39983560578548,245.04484075465,468.754264859715,461.385090946103,462.289492531097,463.075258370256,457.617299607897,463.581089507672
287,-4.15357515151845,-109.434999586287,-105.281424434768,107.358212010527,-2.07678757575923,124.385428609516,354.0522816538,364.566904796637,365.074421020719,359.36356048481,356.028439166461,367.59319596595
288,-13.6936636073515,-94.4461105579103,-80.7524469505588,87.5992787542345,-6.84683180367574,158.883463786769,398.519374524098,400.349640130502,396.636485204333,406.147127727454,395.555077635043,399.259290585673
289,1.41160590652726,-34.5560531299852,-35.9676590365125,35.2618560832489,0.705802953263628,193.292905783077,422.553470602666,419.264109691518,417.66062621164,406.405253767851,419.059189673455,418.918666104291
290,-3.98627990897512,10.5405904336658,14.5268703426409,-12.5337303881533,-1.99313995448756,217.293897676049,420.060925009457,444.872264688456,440.071781710198,435.848726244876,420.875248982105,432.055916387733
291,-2.89628505581641,-147.207940210763,-144.311655154946,145.759797682855,-1.4481425279082,93.5577989754529,331.427253105852,342.476182954764,326.331735249114,344.599804468948,346.651580667094,343.321930439357
