sep=, 
EKG Messung vom 28.01.2019 18.16.14
gemessen mit dem EKG Dongle der Hochschule Luzern BAT HS18

 
 , Lead1, Lead2, Lead3, aVR, aVL, aVF, V1, V2, V3, V4, V5, V6
0,-56.1903328591143,167445.546268817,167501.736601677,-167473.641435247,-28.0951664295571,83750.8683008383,0,0,0,0,0,0
1,-154.816194686573,461156.442634471,461311.258829158,-461233.850731815,-77.4080973432865,230655.629414579,0,0,0,0,0,0
2,-317.092618452501,943814.671445,944131.764063453,-943973.217754227,-158.546309226251,472065.882031726,0,0,0,0,0,0
3,-585.229321776424,1741793.55165623,1742378.780978,-1742086.16631711,-292.614660888212,871189.390489001,0,0,0,0,0,0
4,-1081.14861073671,3217733.85694447,3218815.00555521,-3218274.43124984,-540.574305368355,1609407.5027776,0,0,0,0,0,0
5,-2644.66860535182,7874042.14635205,7876686.8149574,-7875364.48065472,-1322.33430267591,3938343.4074787,0,0,0,0,0,0
6,-1084.92252384266,3217769.08200262,3218854.00452647,-3218311.54326454,-542.461261921329,1609427.00226323,0,0,0,0,0,0
7,-591.711297868751,1741651.34527125,1742243.05656912,-1741947.20092018,-295.855648934375,871121.528284558,0,0,0,0,0,0
8,-313.318913001684,943813.208507895,944126.527420896,-943969.867964396,-156.659456500842,472063.263710448,0,0,0,0,0,0
9,-155.290900229244,461162.732503174,461318.023403404,-461240.377953289,-77.6454501146218,230659.011701702,0,0,0,0,0,0
10,-52.589684429724,167476.008286593,167528.597971023,-167502.303128808,-26.294842214862,83764.2989855114,0,0,0,0,0,0
11,-2.53083299606806,38.5599372696306,41.0907702656987,-39.8253537676646,-1.26541649803403,20.5453851328493,0,0,0,0,0,0
12,3.46259035795811,-90.0327960981522,-93.4953864561103,91.7640912771312,1.73129517897905,-46.7476932280551,0,0,0,0,0,0
13,-5.89461346960161,33.8233770463848,39.7179905159865,-36.7706837811857,-2.9473067348008,19.8589952579932,0,0,0,0,0,0
14,-3.74768949305872,-132.415096185199,-128.667406692141,130.54125143867,-1.87384474652936,-64.3337033460703,0,0,0,0,0,0
15,0.823057032423094,18.3956089318963,17.5725518994732,-17.9840804156847,0.411528516211547,8.78627594973659,0,0,0,0,0,0
16,0.86621241440298,148.868341416644,148.002129002241,-148.435235209443,0.43310620720149,74.0010645011207,0,0,0,0,0,0
17,-0.551659880729858,-165.530131407548,-164.978471526818,165.254301467183,-0.275829940364929,-82.4892357634089,0,0,0,0,0,0
18,-9.91670386740589,-120.219859593315,-110.303155725909,115.261507659612,-4.95835193370294,-55.1515778629546,0,0,0,0,0,0
19,0.486354682507226,-82.916265787906,-83.4026204704132,83.1594431291596,0.243177341253613,-41.7013102352066,0,0,0,0,0,0
20,6.34060795980622,-77.77055257131,-84.1111605311162,80.9408565512131,3.17030397990311,-42.0555802655581,0,0,0,0,0,0
21,4.96274453841033,-157.509328036249,-162.472072574659,159.990700305454,2.48137226920517,-81.2360362873296,0,0,0,0,0,0
22,-5.18534475457272,-110.665901159169,-105.480556404596,108.073228781883,-2.59267237728636,-52.7402782022982,0,0,0,0,0,0
23,7.76231948597706,-162.295014056523,-170.0573335425,166.176173799511,3.88115974298853,-85.0286667712498,0,0,0,0,0,0
24,-0.500319741258863,14.4561990092334,14.9565187504923,-14.7063588798628,-0.250159870629432,7.47825937524613,0,0,0,0,0,0
25,9.33268527040491,-55.6860988794942,-65.0187841498991,60.3524415146967,4.66634263520245,-32.5093920749496,0,0,0,0,0,0
26,-11.5611830187263,67.2232333857392,78.7844164044654,-73.0038248951023,-5.78059150936315,39.3922082022327,0,0,0,0,0,0
27,6.54766892647604,-294.342254464078,-300.889923390554,297.616088927316,3.27383446323802,-150.444961695277,0,0,0,0,0,0
28,-4.60243651858764,-258.79995015022,-254.197513631632,256.498731890926,-2.30121825929382,-127.098756815816,0,0,0,0,0,0
29,-0.180804915929912,-136.16616408102,-135.98535916509,136.075761623055,-0.0904024579649558,-67.992679582545,0,0,0,0,0,0
30,8.88762850535568,-95.3483101793681,-104.235938684724,99.792124432046,4.44381425267784,-52.1179693423619,0,0,0,0,0,0
31,-4.76684524401207,-74.3173986322945,-69.5505533882824,71.9339760102885,-2.38342262200604,-34.7752766941412,0,0,0,0,0,0
32,7.47941444639582,-87.254853600316,-94.7342680467118,90.9945608235139,3.73970722319791,-47.3671340233559,0,0,0,0,0,0
33,-3.886838775652,177.494382071949,181.381220847601,-179.437801459775,-1.943419387826,90.6906104238005,0,0,0,0,0,0
34,-2.00153606431559,31.143299178133,33.1448352424486,-32.1440672102908,-1.00076803215779,16.5724176212243,0,0,0,0,0,0
35,-1.14973125164397,80.6634954524343,81.8132267040783,-81.2383610782563,-0.574865625821985,40.9066133520391,0,0,0,0,0,0
36,-0.092524111882085,120.714356354933,120.806880466815,-120.760618410874,-0.0462620559410425,60.4034402334073,0,0,0,0,0,0
37,-5.02819803793682,81.1264171528455,86.1546151907824,-83.6405161718139,-2.51409901896841,43.0773075953912,0,0,0,0,0,0
38,-8.62189347445383,-79.5618687269744,-70.9399752525205,75.2509219897474,-4.31094673722691,-35.4699876262603,0,0,0,0,0,0
39,15.6447019124753,143.669581305352,128.024879392877,-135.847230349114,7.82235095623764,64.0124396964384,0,0,0,0,0,0
40,-2.27592965008807,72.9563794894784,75.2323091395665,-74.0943443145225,-1.13796482504404,37.6161545697832,0,0,0,0,0,0
41,2.69050852980581,-150.904166737193,-153.594675266999,152.249421002096,1.34525426490291,-76.7973376334994,0,0,0,0,0,0
42,-5.90260201509227,-44.206762392947,-38.3041603778547,41.2554613854008,-2.95130100754614,-19.1520801889274,0,0,0,0,0,0
43,9.10532532053185,-109.725234563113,-118.830559883645,114.277897223379,4.55266266026592,-59.4152799418225,0,0,0,0,0,0
44,-3.60245793111972,116.460095737973,120.062553669093,-118.261324703533,-1.80122896555986,60.0312768345466,0,0,0,0,0,0
45,-1.73790297485539,67.7761695887602,69.5140725636156,-68.6451210761879,-0.868951487427694,34.7570362818078,0,0,0,0,0,0
46,0.683946501463652,-113.765581044194,-114.449527545657,114.107554294926,0.341973250731826,-57.2247637728287,0,0,0,0,0,0
47,15.7267835339007,12.3523241685471,-3.37445936535369,-4.48893240159668,7.86339176695037,-1.68722968267684,0,0,0,0,0,0
48,-12.9780022497289,146.534845143702,159.512847393431,-153.023846268567,-6.48900112486444,79.7564236967155,0,0,0,0,0,0
49,-8.66479003985296,-185.184610019991,-176.519819980138,180.852215000064,-4.33239501992648,-88.259909990069,0,0,0,0,0,0
50,3.65550266075297,-17.2172144261422,-20.8727170868951,19.0449657565187,1.82775133037649,-10.4363585434476,0,0,0,0,0,0
51,6.57058568974026,-106.469802302454,-113.040387992194,109.755095147324,3.28529284487013,-56.5201939960971,0,0,0,0,0,0
52,-7.08268843390397,-43.6304104342707,-36.5477220003668,40.0890662173188,-3.54134421695198,-18.2738610001834,0,0,0,0,0,0
53,-14.2696576114104,-109.982013167959,-95.7123555565486,102.847184362254,-7.13482880570518,-47.8561777782743,0,0,0,0,0,0
54,8.25078273465624,-122.922790797864,-131.17357353252,127.048182165192,4.12539136732812,-65.58678676626,0,0,0,0,0,0
55,0.82562306363252,-477.398575998348,-478.22419906198,477.811387530164,0.41281153181626,-239.11209953099,0,0,0,0,0,0
56,-3.66348187997937,-135.064918208343,-131.401436328364,133.233177268354,-1.83174093998969,-65.700718164182,0,0,0,0,0,0
57,3.71401812121621,-164.789832517505,-168.503850638721,166.646841578113,1.85700906060811,-84.2519253193605,0,0,0,0,0,0
58,-2.51180217275396,-79.5753735971812,-77.0635714244272,78.3194725108042,-1.25590108637698,-38.5317857122136,0,0,0,0,0,0
59,10.63555419771,7.07059212590684,-3.56496207180317,-1.75281502705184,5.317777098855,-1.78248103590158,0,0,0,0,0,0
60,-9.95387810660759,-35.1213644868403,-25.1674863802327,30.1444254335365,-4.97693905330379,-12.5837431901164,0,0,0,0,0,0
61,7.60160048308899,91.3306316692906,83.7290311862016,-87.5298314277461,3.80080024154449,41.8645155931008,0,0,0,0,0,0
62,2.34327077391208,-46.694903109601,-49.0381738835131,47.866538496557,1.17163538695604,-24.5190869417565,0,0,0,0,0,0
63,-1.69124844053295,-36.6431816599215,-34.9519332193886,35.7975574396551,-0.845624220266473,-17.4759666096943,0,0,0,0,0,0
64,-0.88439729847596,-140.699685664353,-139.815288365877,140.257487015115,-0.44219864923798,-69.9076441829384,0,0,0,0,0,0
65,11.7042636380938,-46.5290248920792,-58.233288530173,52.3811567111261,5.85213181904692,-29.1166442650865,0,0,0,0,0,0
66,3.22123865241883,35.3421719045436,32.1209332521248,-33.7315525783342,1.61061932620942,16.0604666260624,0,0,0,0,0,0
67,0.531748598121339,164.258207681734,163.726459083613,-163.992333382674,0.26587429906067,81.8632295418065,0,0,0,0,0,0
68,1.61400715928175,70.1989723510051,68.5849651917233,-69.3919687713642,0.807003579640877,34.2924825958617,0,0,0,0,0,0
69,1.84670338346041,194.037752877106,192.191049493646,-193.114401185376,0.923351691730204,96.0955247468228,0,0,0,0,0,0
70,-4.49475057682139,114.446219899633,118.940970476455,-116.693595188044,-2.24737528841069,59.4704852382274,0,0,0,0,0,0
71,-4.61626245247317,-38.4727941044257,-33.8565316519525,36.1646628781891,-2.30813122623658,-16.9282658259763,0,0,0,0,0,0
72,0.129547568474663,672.309163522674,672.179615954199,-672.244389738436,0.0647737842373317,336.0898079771,0,0,0,0,0,0
73,-3.06376829318469,139.220332495635,142.28410078882,-140.752216642228,-1.53188414659235,71.14205039441,0,0,0,0,0,0
74,-7.87480725080241,147.173927321332,155.048734572134,-151.111330946733,-3.9374036254012,77.524367286067,0,0,0,0,0,0
75,8.87637739724596,54.5967020998942,45.7203247026482,-50.1585134012712,4.43818869862298,22.8601623513241,0,0,0,0,0,0
76,-1.27346158359433,-105.265080779296,-103.991619195702,104.628349987499,-0.636730791797163,-51.9958095978509,0,0,0,0,0,0
77,4.6762450937822,-137.054344244098,-141.73058933788,139.392466790989,2.3381225468911,-70.8652946689399,0,0,0,0,0,0
78,-3.02089757987414,148.678112624766,151.69901020464,-150.188561414703,-1.51044878993707,75.8495051023201,0,0,0,0,0,0
79,8.2368514779082,53.1499253380753,44.9130738601671,-49.0314995991212,4.1184257389541,22.4565369300835,0,0,0,0,0,0
80,2.62789315890404,206.855778818397,204.227885659493,-205.541832238945,1.31394657945202,102.113942829747,0,0,0,0,0,0
81,3.77898796027876,62.786380583042,59.0073926227633,-60.8968866029027,1.88949398013938,29.5036963113816,0,0,0,0,0,0
82,-6.61937485486851,130.827869915956,137.447244770825,-134.137557343391,-3.30968742743426,68.7236223854125,0,0,0,0,0,0
83,-3.83957821023068,58.1226691972406,61.9622474074713,-60.042458302356,-1.91978910511534,30.9811237037356,0,0,0,0,0,0
84,-7.82182043345529,102.671695004101,110.493515437556,-106.582605220829,-3.91091021672764,55.2467577187781,0,0,0,0,0,0
85,8.36662421561778,-163.782860987791,-172.149485203408,167.9661730956,4.18331210780889,-86.0747426017042,0,0,0,0,0,0
86,-5.14257940041716,68.9924117615155,74.1349911619327,-71.5637014617241,-2.57128970020858,37.0674955809664,0,0,0,0,0,0
87,6.69263557964587,-59.9850051038957,-66.6776406835415,63.3313228937186,3.34631778982293,-33.3388203417708,0,0,0,0,0,0
88,-6.37970060424414,75.4288452020264,81.8085458062706,-78.6186955041485,-3.18985030212207,40.9042729031353,0,0,0,0,0,0
89,-6.06528295754106,-3.16643998204381,2.89884297549725,0.133798503273283,-3.03264147877053,1.44942148774862,0,0,0,0,0,0
90,1.95977670873981,-19.3252659360878,-21.2850426448276,20.3051542904577,0.979888354369905,-10.6425213224138,0,0,0,0,0,0
91,-0.794830544502474,83.0396925630339,83.8345231075364,-83.4371078352851,-0.397415272251237,41.9172615537682,0,0,0,0,0,0
92,13.2179846681538,79.8279734704411,66.6099888022873,-73.2189811363642,6.6089923340769,33.3049944011436,0,0,0,0,0,0
93,-0.28013601488783,38.7838394052524,39.0639754201402,-38.9239074126963,-0.140068007443915,19.5319877100701,0,0,0,0,0,0
94,0.755936181580182,-78.6445486537414,-79.4004848353215,79.0225167445315,0.377968090790091,-39.7002424176608,0,0,0,0,0,0
95,-1.30210795041057,148.874039761286,150.176147711696,-149.525093736491,-0.651053975205286,75.0880738558481,0,0,0,0,0,0
96,0.0360495807253756,20.5160131964949,20.4799636157695,-20.4979884061322,0.0180247903626878,10.2399818078848,0,0,137419.965825875,137347.059139657,137073.014880441,137006.149467004
97,-12.9802924259857,-90.1212252317346,-77.1409328057489,83.6310790187417,-6.49014621299284,68524.3756622266,137125.892257259,137180.220405676,378449.462524253,378248.868422344,377494.0273515,377309.78975062
98,-15.1617933951202,-121.039965891192,-105.878172496072,113.459069193632,-7.58089669756009,188766.227750386,377638.333673269,377788.237843731,774524.239395678,774113.899901613,772568.638243338,772191.597007228
99,8.17301946357475,-21.7812561249884,-29.9542755885632,25.8677658567758,4.08650973178737,386417.141220741,772864.236717071,773170.779810478,1429340.21164212,1428582.73535386,1425731.0116737,1425035.67336328
100,5.80519078442012,104.276797192637,98.4716064082168,-101.374201800427,2.90259539221006,713190.146477693,1426281.82134898,1426847.17639291,2640491.97262911,2639092.35595704,2633823.90575977,2632540.14491962
101,15.8207196240255,78.0466884743073,62.2259688502818,-70.1363286622945,7.91035981201276,1317453.34028924,2634844.45460963,2635888.89135382,6461613.10466126,6458186.9603466,6445296.14774962,6442153.49196511
102,0.38304004893871,121.343833666993,120.960793618055,-121.152313642524,0.191520024469355,3223954.93095819,6447788.90112275,6450344.71459651,2639670.88593955,2638276.61074493,2633001.32600926,2631718.31857679
103,-7.48347625313909,31.9676817481813,39.4511580013204,-35.7094198747509,-3.74173812656954,1317025.34095509,2634011.23075218,2635060.53376945,1428147.8082205,1427389.72848127,1424526.00163784,1423840.87623472
104,4.55224576793262,271.639132147044,267.086886379111,-269.363009263077,2.27612288396631,712717.30158497,1425167.51628356,1425718.44941639,773208.190591845,772784.649667973,771243.05275858,770886.840869507
105,5.87638844861067,498.488386772282,492.611998323671,-495.550192547977,2.93819422430533,386105.950877903,771719.289757483,772021.828312092,377208.199100125,377005.595826945,376235.020388545,376060.949813733
106,-7.15272824431304,414.447397258598,421.600125502911,-418.023761380755,-3.57636412215652,188379.572939386,376337.545753268,376499.299804747,136082.33481278,136009.508115636,135735.089910885,135640.771502775
107,-2.33562213528785,295.562055294897,297.897677430185,-296.729866362541,-1.16781106764392,67995.3011824413,135692.704687452,135750.276382269,-1446.08024910165,-1427.44565854472,-1446.20612000272,-1434.30576057589
108,-3.55928469152423,241.009994145163,244.569278836687,-242.789636490925,-1.77964234576211,-599.390486082149,-1443.35025100099,-1442.02826525908,-1444.69216983436,-1435.93302486185,-1442.10006457244,-1444.19969667846
109,0.119351379427826,211.099399473896,210.980048094469,-211.039723784183,0.059675689713913,-623.833186132426,-1458.64642035932,-1447.48545738831,-1447.52744217738,-1434.34941963441,-1444.61757835565,-1462.098483254
110,4.40277661438449,73.0877973621245,68.6850207477401,-70.8864090549323,2.20138830719225,-718.490042796839,-1505.66510634142,-1512.55010391094,-1522.77519747135,-1506.72491565216,-1525.97215225341,-1523.20008186673
111,-1.64111738686915,-121.087255443708,-119.446138056839,120.266696750274,-0.820558693434577,-841.899773834084,-1564.35340961133,-1574.91059647696,-1574.12109118872,-1591.82336557037,-1568.83327052748,-1578.78472429665
112,0.896665085165296,-16.4720177426061,-17.3686828277714,16.9203502851888,0.448332542582648,-1031.91169668589,-2046.454710544,-2054.65681355228,-2056.59543036143,-2051.58641689993,-2044.40401370375,-2052.52020833574
113,-5.02844696555985,-162.544609897071,-157.516162931512,160.030386414292,-2.51422348277993,-1567.66648166301,-2977.8168003945,-2949.7511620101,-2966.65806921016,-2961.87395130831,-2974.82735390746,-2960.82819782867
114,-6.45038508367725,-111.535576173104,-105.085191089427,108.310383631266,-3.22519254183862,-2241.95750823822,-4378.82982538702,-4365.99357343488,-4373.27379868293,-4367.33881030264,-4366.19105820046,-4374.23566230919
115,-2.96290423639584,-24.7702641952492,-21.8073599588533,23.2888120770513,-1.48145211819792,-3318.03092899341,-6614.25449802796,-6614.95270212673,-6589.70152699135,-6602.00932440226,-6628.25051234005,-6601.53748518435
116,-5.88565819774522,189.292139050784,195.177797248529,-192.234968149656,-2.94282909887261,-5306.53047519764,-10808.2387476438,-10808.5290854874,-10791.5154900731,-10793.5644129213,-10803.6297443026,-10808.8200539307
117,-5.22096456182771,256.88404587534,262.105010437168,-259.494528156254,-2.61048228091386,-12160.4844409948,-24583.0738924267,-24593.359134862,-24573.4209555514,-24543.1315694281,-24604.3733154575,-24602.7715837079
118,-2.69621699233539,-32.1718588029034,-29.4756418105681,30.8237503067357,-1.3481084961677,-4904.70393485604,-9779.9322279015,-9784.54720054995,-9772.14403014636,-9769.49394091233,-9789.10379675598,-9785.70587919082
119,12.1220711315982,39.0540861594491,26.9320150278509,-32.99305059365,6.0610355657991,-2473.27508141795,-4973.48217786374,-4981.41423081135,-4974.94313080545,-4970.90028525883,-4994.06782683317,-4997.27426498401
120,-1.13481993656023,80.2836228342494,81.4184427708096,-80.8510328025295,-0.567409968280117,-1146.88227956992,-2375.18300191066,-2369.00873831907,-2374.84785013503,-2375.23175568192,-2372.73908661961,-2356.38424908789
121,5.90348624734906,80.9737677714147,75.0702815240656,-78.0220246477402,2.95174312367453,-337.37144098735,-749.813163498766,-751.761819429346,-738.670644609578,-760.083606262691,-761.829383372882,-753.218936479534
122,-1.26323890360072,15.9047867259942,17.1680256295949,-16.5364061777946,-0.631619451800361,81.7978257185459,146.427625807497,135.986684396979,148.063770608482,150.117076709284,156.376288590865,145.468560033041
123,0.611994423379656,-204.40774212018,-205.01973654356,204.71373933187,0.305997211689828,194.111933794557,593.243604132673,590.031909893209,594.57424936138,585.545983735443,591.800343565264,593.021981124562
124,6.62862281521666,-25.1282775636646,-31.7569003788813,28.4425889712729,3.31431140760833,326.217335654859,684.1915716886,679.947398543649,669.404272502114,670.761355832539,674.664319864096,675.164002061676
125,-9.22541040091892,177.653832206648,186.879242607567,-182.266537407108,-4.61270520045946,473.385262500145,759.891282392724,755.14305982826,763.746683619538,755.260333259444,770.711016338173,763.292178909178
126,-4.23305653111311,75.3647608980245,79.5978174291376,-77.4812891635811,-2.11652826555655,396.623971399924,713.65012537071,717.566502437257,732.634539213206,724.542859427456,733.997250780289,715.237215590198
127,-6.07475970932865,-33.3902296335436,-27.315469924215,30.3528497788793,-3.03737985466432,336.420699693917,700.15686931205,701.522594704293,703.335859105893,702.537701774389,697.289940728835,706.189342991886
128,0.983115429029567,6.39213846495841,5.40902303592884,-5.90058075044362,0.491557714514784,354.991647599527,704.574272163125,707.230999460298,700.391042232164,716.890208331111,707.508881070011,711.067573709792
129,10.8615942746983,124.057061476255,113.195467201556,-118.626264338905,5.43079713734915,447.185449605997,781.175432010437,786.179712980462,772.561587019591,778.393749898067,765.382066202903,763.739032650716
130,-5.16212309201364,52.1984868348809,57.3606099268945,-54.7795483808877,-2.58106154600682,394.756561938615,732.152513950336,735.13510009789,724.145335288602,731.983500401344,725.630107004778,728.53683350177
131,2.92661542573478,-100.655644116254,-103.582259541989,102.118951829121,1.46330771286739,296.728866785357,697.039993112703,703.694510585628,686.576341423264,708.129396582517,696.09561869927,694.638812723017
132,0.818010437506018,-115.866719559446,-116.684729996952,116.275724778199,0.409005218753009,305.308796077996,727.302322152944,724.716810394835,710.326069178846,726.021909898496,718.958927020489,726.443067396554
133,-2.33935627347091,73.2071454085817,75.5465016820526,-74.3768235453172,-1.16967813673546,464.559566573371,853.572631464689,851.184999589314,856.549657695723,850.366810345702,869.05346467669,862.497475504613
134,0.221896707487758,-26.069057740242,-26.2909544477297,26.1800060939859,0.110948353743879,384.873273297519,796.037501042767,781.666846168373,793.058355660032,780.927933458384,789.049588646914,805.759829424729
135,3.81746331360773,-32.2768536607036,-36.0943169743114,34.1855853175075,1.90873165680387,381.859759958257,799.813836890826,809.394249903678,808.909503739065,804.172588809102,801.688265873148,807.349291835155
136,-15.8650599847315,-17.8031984496338,-1.93813846490229,9.87066845726804,-7.93252999236574,410.085941016514,822.11002049793,812.903311964386,808.903942987992,798.580999806698,808.14936445668,783.335229624878
137,1.06429253166425,64.5988545490254,63.5345620173612,-64.0667082831933,0.532146265832125,456.497703442103,849.460844866844,856.012669871969,853.499620114191,843.437556789431,832.551190082042,860.383040082874
138,5.41299823840382,-42.937940162461,-48.3509384008648,45.6444392816629,2.70649911920191,391.092525991466,830.535990383796,812.006637682498,822.560867172491,824.064691644802,838.642189304926,833.120293549495
139,-8.27928303618683,-130.301271665754,-122.021988629567,126.161630147661,-4.13964151809341,320.277619297922,762.577227225411,769.548174435477,769.151413121523,767.382354349276,774.173065212293,769.358715084381
140,20.1631094873592,150.170410328428,130.007300841069,-140.088855584749,10.0815547436796,534.387012767955,938.76672469484,935.686714769516,944.436952815129,956.845763011836,942.846274319512,949.446132422658
141,-1.29111101932358,-215.039800548286,-213.748689528962,214.394245038624,-0.64555550966179,268.295483303809,750.339656136581,745.423922016867,746.722018507542,753.264248583175,744.705725639884,756.004067915957
142,2.17864428766188,-27.8966831980215,-30.0753274856834,28.9860053418524,1.08932214383094,418.325852587019,866.727032659721,879.418287033128,869.500714846596,862.434847234574,886.756106972869,852.383477140218
143,6.30917088428396,-49.8409767789708,-56.1501476632548,52.9955622211128,3.15458544214198,401.464073196927,859.078294057108,861.54287302203,847.904218055133,860.077296453848,878.501902524644,872.248540679691
144,-5.90656825280166,-58.1936043378664,-52.2870360850648,55.2403202114656,-2.95328412640083,401.302344005439,854.891724095942,868.225328838453,863.086173638294,857.623323021282,852.878454190388,862.920348429878
145,-2.91265779311652,-125.000045907102,-122.087388113985,123.543717010543,-1.45632889655826,369.040626778267,860.16864167052,839.11652854571,846.610994345305,848.148893738602,845.180958277575,827.086627462239
146,5.91264638703433,-104.307108523673,-110.219754910708,107.263431717191,2.95632319351716,387.657364039493,885.534482989693,893.42563709669,890.732472661912,889.51173629181,889.195325605542,901.518955366133
147,3.18982853568741,61.7542622717447,58.5644337360573,-60.159348003901,1.59491426784371,521.392312990094,984.220192244131,988.928822433314,985.69617467784,987.490799846157,983.783484683518,995.28555941183
148,10.499310343992,105.652876740729,95.153566396737,-100.403221568733,5.24965517199598,543.606421869859,992.059277342982,1003.657908327,991.675036994769,997.727846758586,992.430763940269,987.875955586089
149,-8.07597678000457,171.824993357324,179.900970137329,-175.862981747327,-4.03798839000228,573.096509596231,966.292049055133,959.438871625782,959.027474645263,952.384823436645,977.017754891654,956.317654889252
150,2.26860776430112,-69.7671529159124,-72.0357606802136,70.901456798063,1.13430388215056,406.875843930451,885.787448541116,871.604552352219,890.61729310028,877.883037473541,880.585657609743,892.863048180065
151,-7.5171592211118,5.52983119533747,13.0469904164493,-9.28841080589336,-3.7585796105559,472.169802878634,931.292615340819,953.294141549326,948.287179958919,947.175074164174,961.9357356572,952.996146820427
152,0.753404349496122,-208.178828867094,-208.93223321659,208.555531041842,0.376702174748061,286.466630204464,781.865493625519,775.374096833635,774.398693515541,768.786165381083,770.423540606833,783.623090687557
153,-6.60725336076575,-105.374622341536,-98.7673689807707,102.070995661154,-3.30362668038288,380.109753032826,858.986875046423,857.604635757714,854.674670684035,850.225723362324,859.915460000775,877.589594720601
154,1.3231176326226,-399.816159090027,-401.13927672265,400.477717906339,0.661558816311299,183.463959449276,768.067195621203,748.528824471403,756.182056916005,750.690019974776,742.443041382096,747.992033140705
155,8.25320610715426,-587.343514305248,-595.596720412403,591.470117358826,4.12660305357713,24.9879626034817,645.572645619366,646.459221720987,649.685795297992,650.25058278197,646.839927577763,644.657273714925
156,5.98843676500837,-87.5850460197835,-93.5734827847919,90.5792644022877,2.99421838250419,434.694211975089,962.96190673497,961.173600184615,949.307610237302,958.913101747836,959.007601797523,943.335358572484
157,-13.5132594828901,132.878122402646,146.391381885536,-139.634752144091,-6.75662974144507,1197.605802134,2248.82022238246,2249.89371193555,2246.46373041085,2245.59734527065,2241.52770423164,2247.86754470706
158,9.5390763716714,-32.8847645493806,-42.423840921052,37.6543027352163,4.7695381858357,2124.01427337153,4290.45238766412,4293.09242712721,4277.48290725733,4278.18559370056,4293.43865766498,4300.44322192998
159,-7.50605189893395,-51.2914531912538,-43.7854012923199,47.5384272417868,-3.75302594946697,3853.89153103523,7751.56846336278,7755.18326519954,7743.97896351403,7750.25045379993,7760.91369221182,7751.36790148442
160,-7.04628402751405,-157.547991058789,-150.501707031275,154.024849045032,-3.52314201375702,6655.68911654031,13461.8799401119,13469.7813790546,13454.0542909182,13441.9636046835,13477.7849584786,13479.2712726315
161,-7.53602728928672,-236.422163538664,-228.886136249377,232.654149894021,-3.76801364464336,11887.3749243544,24003.6359849581,24007.9202699972,23992.0013850424,23967.7218987563,24020.8874409111,24013.8122426096
162,7.14488657441689,-742.557446993218,-749.702333567635,746.129890280426,3.57244328720844,28263.0533585331,57275.8090506338,57300.6595769915,57234.3284731611,57209.7818857777,57313.3984534548,57306.0984428152
163,1.81857633593609,-288.309609216405,-290.128185552341,289.218897384373,0.909288167968043,11804.5921594216,23899.3125043956,23928.3465966273,23910.474574593,23884.8327293439,23931.4997210077,23939.265652767
164,6.92819851468084,-151.788402140635,-158.716600655316,155.252501397976,3.46409925734042,6616.91220242107,13392.5410054974,13385.8291626623,13385.5807931317,13370.2244142091,13398.4545188361,13377.7589216856
165,12.2567464406602,34.2871893167903,22.0304428761301,-28.1588160964602,6.1283732203301,3874.32550499459,7726.62056711304,7697.93888174705,7715.5151958889,7698.01160683989,7707.68877438741,7705.52961194524
166,3.67414351532352,63.3040427596425,59.6298992443189,-61.4669710019807,1.83707175766176,2151.4390802191,4243.24826119389,4262.19518812615,4251.79839018287,4244.87293130221,4256.06219396021,4261.83726522268
167,1.0493520674645,22.0319392127858,20.9825871453213,-21.5072631790536,0.524676033732248,1092.4272250199,2163.87186289448,2159.31235638284,2149.69313383722,2146.71833536046,2156.81484940855,2154.69399144297
168,-4.57206897588912,-44.5269096903212,-39.9548407144321,42.2408752023766,-2.28603448794456,419.161625137931,878.278090990294,877.18047390721,889.019553385675,895.909133376903,886.134154349216,888.573688468809
169,-2.59895946978941,-50.3960500562389,-47.7970905864495,49.0965703213442,-1.2994797348947,414.738929183441,877.274948953331,876.959662301233,863.519843224291,861.058964969008,878.73508242704,875.244056054158
170,-2.51872080285102,98.1770806552668,100.695801458118,-99.4364410566923,-1.25936040142551,530.72817540438,960.760549350642,973.967174345191,966.924608380446,970.742272246804,963.763010208873,978.196163445245
171,8.16496663368889,44.7012567739293,36.5362901402405,-40.6187734570849,4.08248331684445,477.892031430296,919.247772720351,929.232007004728,921.84533667544,924.351040688693,919.813057248073,922.1290375916
172,-9.0331626390398,-36.1895577470423,-27.1563951080025,31.6729764275224,-4.5165813195199,433.124554393042,893.405503894086,894.432232047722,887.018455419893,884.198488909577,889.073885176243,896.169022726215
173,-0.156441522150999,108.438610253012,108.595051775163,-108.516831014087,-0.0782207610754995,519.109794638556,929.62453750195,921.232031855005,933.545247869391,928.938795280497,936.095721257181,931.830941463733
174,-9.61712782570976,-73.9795177316119,-64.3623899059021,69.170953818757,-4.80856391285488,413.96877083389,892.299931573682,881.273647494469,886.520017091534,897.927605052799,894.169025078387,875.855826043146
175,4.19483309893985,23.5366793967842,19.3418462978443,-21.4392628473142,2.09741654946993,460.761576262565,902.181306227285,897.872377198044,891.581399234245,887.18211346367,897.32480724802,899.226668149582
176,-13.1666154862323,-37.6660052142106,-24.4993897279783,31.0826974710944,-6.58330774311617,418.557766115351,861.614921958681,878.842314619658,871.167185502592,877.964854172897,870.00578956955,855.136720568058
177,23.808520819759,-90.2688880102651,-114.077408830024,102.173148420145,11.9042604098795,371.161964524552,856.401337879128,858.249697166058,849.276096185175,847.793130471488,837.605559610733,849.05344587873
178,-13.8259467167954,111.913131081208,125.739077798004,-118.826104439606,-6.91297335839772,531.03301497901,936.326952160016,938.034108950407,939.827592516463,933.763046970824,938.06647001786,942.904975348356
179,-0.0621240942564327,-11.7104266471579,-11.6483025529014,11.6793646000297,-0.0310620471282164,415.670521479173,842.989345511247,855.501363374526,865.904159002734,863.162314171146,849.998893253942,868.915177098272
180,-3.78495856048539,-59.3031623618153,-55.5182038013299,57.4106830815726,-1.8924792802427,407.789289538647,871.096782878623,873.85337896063,865.9733679044,859.777951238793,868.302605640376,845.58121400181
181,-3.30947307503084,122.123441293283,125.432914368314,-123.778177830798,-1.65473653751542,542.071508127556,958.710101886798,960.229227850476,958.019990678644,972.493119970866,966.451705363404,975.930386444787
182,9.98924563618493,-15.4528321113321,-25.442077747517,20.4474549294246,4.99462281809247,443.040253261774,911.522584271064,893.402890810772,890.905119736155,908.758983882319,914.624054509361,905.62200795699
183,1.67315026000142,-0.200488560483791,-1.87363882048521,1.0370636904845,0.83657513000071,435.024717757842,871.92307433617,864.634372085304,870.362058002735,860.415909750765,880.836847710685,868.913403429848
184,-5.28615380331757,-11.2498564260604,-5.96370262274286,8.60677952440165,-2.64307690165879,419.971569914604,845.90684245195,853.199496654852,853.600490969868,842.952690148959,858.39980838669,845.376122267247
185,0.118997415760532,26.4592630686238,26.3402656528633,-26.3997643607436,0.059498707880266,439.301001575426,852.261737497989,866.106945281936,870.262166772154,861.60094910115,872.561762492347,863.233831947029
186,0.479007306625135,-68.7068763779534,-69.1858836845786,68.946380031266,0.239503653312568,392.830370418233,854.846624521044,862.830294271291,863.76360002131,852.839766510093,863.051071794209,859.129239775561
187,-4.93236214123317,-82.9802985496062,-78.0479364083731,80.5141174789896,-2.46618107061659,371.801367625943,821.65067166026,814.553737945418,809.681818938232,817.172252415214,814.845195064467,816.453350547759
188,11.3767596575199,-210.074917037651,-221.451676695171,215.763296866411,5.68837982875993,279.086303686476,779.624284068123,779.95682245557,774.868841763178,774.292567621946,769.515979823424,781.844304614177
189,-3.39057571301237,-189.061173079041,-185.670597366028,187.365885222534,-1.69528785650618,313.453387921792,812.577373209613,788.383437278884,816.505713518622,796.475553061522,797.12813784153,808.741392261058
190,-11.0420903161867,-2.53489503837773,8.50719527780893,-2.9861501197156,-5.52104515809333,443.261469237274,878.015743196738,883.739540182287,890.482321164833,868.527897747379,875.140967821761,869.017623298918
191,-2.48269204652752,-53.2018115333922,-50.7191194868647,51.9604655101284,-1.24134602326376,408.280100393822,867.279320274509,867.85747363008,850.453036959661,847.482926585537,860.89064661882,852.146751539694
192,-10.9067540054966,-24.2971341632656,-13.390380157769,18.8437571605173,-5.45337700274831,418.561171372014,850.512722901796,841.943745245866,839.613115838321,849.594551245245,827.44917581795,853.943505152653
193,16.2094159160042,-23.5925689009891,-39.8019848169934,31.6972768589912,8.10470795800211,400.632420743088,841.066826303169,827.981322284322,836.517677355616,842.271472225053,836.222271429724,829.695422839577
194,-0.887889010336949,166.312162676826,167.200051687163,-166.756107181995,-0.443944505168474,574.30216664655,981.404281605937,976.051035901648,973.006687896414,969.813353427104,979.726550925407,983.946272276517
195,7.63314350851579,116.018666064629,108.385522556113,-112.202094310371,3.81657175425789,503.142698673109,897.899874790106,907.351944268885,893.818429828447,916.582044983137,916.933373725595,911.992695803783
196,-6.69856834749226,-32.6487373334239,-25.9501689859317,29.2994531596778,-3.34928417374613,406.512570163351,838.975309312635,846.404734115175,840.88020964936,849.93504534752,840.71625752165,854.704924234888
197,8.96933593746508,-250.918423791183,-259.887759728648,255.403091759916,4.48466796873254,213.46912469939,686.826009127428,698.205355810205,685.973273143027,692.676892743213,686.838681815891,691.084237487026
198,-4.10319674859056,35.1911604771158,39.2943572257063,-37.2427588514111,-2.05159837429528,432.362994866227,825.431632506748,831.346040752192,831.040445347113,830.191987387079,850.370972070348,819.787164263515
199,3.50969882353093,-57.8746965504542,-61.3843953739852,59.6295459622197,1.75484941176546,350.776124239215,762.936643852416,762.696268471918,773.645165088092,764.752369787951,767.343078094593,772.255991194514
200,0.267054908326827,-163.677807107306,-163.944862015633,163.811334561469,0.133527454163413,284.24723954621,732.439341108053,734.993089217925,731.345583468443,717.379726860236,732.851323486248,716.953415254073
201,0.0915883266716264,208.794124974083,208.702536647412,-208.748330810748,0.0457941633358132,767.198489899514,1325.69444315162,1338.98654408034,1338.6315185815,1332.34547308926,1328.06643720123,1337.20109725086
202,17.3500223111187,90.141718761326,72.7916964502074,-81.4667076057667,8.67501115555933,998.662343807242,1924.53299116428,1935.44789707343,1924.88117740111,1929.72394493234,1932.21997497146,1936.50591723475
203,-3.99671051974292,188.195270730794,192.191981250537,-190.193625990665,-1.99835525987146,1653.63840698166,3115.08483271278,3095.82480629432,3113.27468689915,3104.41448212494,3109.43997708804,3112.52282563044
204,-15.1872019042203,35.9653542112792,51.1525561154995,-43.5589551633893,-7.59360095211014,2475.42751488757,4899.70247365965,4899.98220663238,4892.996977031,4891.61180683738,4892.95629692244,4892.9255613366
205,8.57779334852239,361.398044269299,352.820250920777,-357.109147595038,4.2888966742612,4402.8698450692,8452.91943921763,8458.34418337888,8463.06924284669,8466.29161109505,8463.5771185327,8463.06100458503
206,3.47653399300179,-23.2296247205231,-26.7061587135249,24.967891717024,1.7382669965009,9563.32453596083,19153.3552306352,19156.9202353754,19143.5726452437,19134.2007231927,19171.9703682833,19165.1386234847
207,-6.62219431274571,-18.6612739342963,-12.0390796215506,15.3501767779235,-3.31109715637285,3843.33992819952,7698.7189360206,7709.957837261,7681.5853665375,7686.67428020199,7704.92769529094,7689.75382267329
208,2.46947022678796,-6.13641374575673,-8.60588397254469,7.37114885915071,1.23473511339398,2024.23066192448,4057.0672078215,4044.31006253409,4060.0617627287,4045.26190640495,4065.02857617821,4068.52594326553
209,-9.32725481851958,-6.43088934198022,2.89636547653936,1.76726193272043,-4.66362740925979,1042.7681028821,2082.63984028765,2096.10759803836,2086.31519499479,2083.19555887254,2094.13616800943,2087.74903348129
210,1.00462971374509,-31.8517093711998,-32.8563390849449,32.3540242280724,0.502314856872545,431.644265906041,896.144870897027,898.157715288165,884.423325876007,896.652201605204,881.646393771283,903.466336988029
211,-3.4392647324712,30.4432261918555,33.8824909243267,-32.1628585580911,-1.7196323662356,124.487576560583,215.092662196839,202.005516546342,211.271216705529,201.265742744843,208.299431595573,205.841005453694
212,5.39138612858369,-100.924858549639,-106.316244678223,103.620551613931,2.69569306429185,-203.721061506745,-301.125878335268,-289.494780992827,-293.251171845564,-277.465815191623,-303.283411727927,-296.422197416483
213,7.61028500110842,43.1752850181656,35.5650000170572,-39.3701425176114,3.80514250055421,-95.8653250611678,-227.295650139393,-243.259574261116,-237.531291228894,-240.368116402067,-238.737322045548,-242.144924566121
214,-3.07160221706727,-93.3630967323552,-90.2914945152879,91.8272956238216,-1.53580110853363,-211.665996784286,-333.040499053284,-331.963634162996,-332.979223663773,-334.952126104006,-337.515654629155,-334.457237325609
215,-6.90612532748492,-138.052488499612,-131.146363172127,134.59942583587,-3.45306266374246,-268.836712717457,-406.527062262787,-426.715659242414,-407.578357376275,-406.616907558811,-405.142888949078,-396.242962852819
216,2.42365317023359,-14.3001890073356,-16.7238421775692,15.5120155924524,1.2118265851168,-177.22756585326,-337.731289528951,-320.764023452648,-325.465303801611,-338.362186826271,-329.644619955623,-336.221402173542
217,0.66851057857275,-91.2757089975348,-91.9442195761076,91.6099642868212,0.334255289286375,-255.585476476001,-419.226733375894,-417.314962211909,-421.859098763787,-436.115146018652,-418.080907449621,-420.926714474597
218,-1.72671902994625,-49.2175804631552,-47.4908614332089,48.354220948182,-0.863359514973126,-218.738179119275,-389.985496805341,-393.183764347254,-393.819778679579,-402.085467280791,-392.326896859711,-392.014599380316
219,2.64397662429838,21.7776104332297,19.1336338089313,-20.4556221210805,1.32198831214919,-170.981768550977,-361.097170910885,-350.577654965397,-347.145136086416,-345.481399386248,-345.912437470019,-361.040576969041
220,-7.11091984779341,95.0812551577983,102.192175005592,-98.636715081695,-3.55545992389671,-105.431364478412,-313.054903962417,-303.6034054661,-306.992686272599,-307.967000922683,-319.625895219011,-312.647051128355
221,-6.03820526477648,182.118644342409,188.156849607185,-185.137746974797,-3.01910263238824,-41.0437084244331,-270.244266456051,-268.885915536608,-283.706440687587,-264.362398708879,-281.959726184461,-276.267077118333
222,-6.07341607756098,-97.0285981875204,-90.9551821099594,93.9918901487399,-3.03670803878049,-271.001185619549,-451.047189129138,-452.001068738406,-460.302851176122,-461.509435772401,-452.105997985695,-446.776701291325
223,-0.813853542669676,-150.902105086425,-150.088251543755,150.49517831509,-0.406926771334838,-317.834003144249,-485.579754744744,-491.558377897105,-480.846957045549,-491.711524668353,-494.356957251526,-489.435424992989
224,4.27382523767301,56.5774705577642,52.3036453200912,-54.4405579389277,2.1369126188365,-169.523806527752,-391.351258375595,-397.104381983081,-399.894502300624,-390.784516371787,-385.181985259434,-376.670685323275
225,5.28454381722258,95.830432086892,90.5458882696694,-93.1881601782807,2.64227190861129,-126.210193873281,-342.966276016232,-339.279997356847,-334.083697314549,-332.088514393865,-334.463084330957,-341.688668214541
226,-8.86403869927744,86.7029604588461,95.5669991581235,-91.1349798084848,-4.43201934963872,-134.277806314014,-364.122611786152,-371.337365662679,-361.284945794352,-349.210542920511,-358.380604903592,-368.850697285874
227,0.746323981875321,-26.0223038106051,-26.7686277924804,26.3954658015427,0.37316199093766,-251.818496156309,-476.868364520138,-463.659051748953,-478.877092575422,-472.034319903352,-469.551702408004,-480.605584508099
228,12.9334783598315,42.5143409293087,29.5808625694772,-36.0476017493929,6.46673917991575,-183.326270751204,-396.233404071885,-376.710348246474,-399.917717665725,-395.133433418494,-398.251149409887,-396.205302347662
229,-2.73674162072712,28.0907203903771,30.8274620111042,-29.4590912007407,-1.36837081036356,-221.359246584776,-473.545955180656,-494.439903773629,-473.437983557611,-474.437175419007,-478.677341957286,-481.115640218923
230,-0.753933058149414,-15.6980421372864,-14.944109079137,15.3210756082117,-0.376966529074707,-257.946388723445,-500.948668367753,-513.519899251784,-513.55194844745,-508.75636080376,-516.263155971508,-513.55103230197
231,-5.2315031849721,85.2516640915128,90.4831672764849,-87.8674156839988,-2.61575159248605,-209.492322856764,-509.467812990013,-501.657456310844,-494.833470715355,-496.923291795305,-503.750084414089,-506.953830512473
232,-7.33100019011181,148.042647322582,155.373647512693,-151.708147417638,-3.6655000950559,-151.706525097412,-458.786697707517,-446.821006288636,-447.573020414449,-449.185720211681,-456.253565813822,-451.345943548047
233,4.34739525732584,-61.0842059095157,-65.4316011668416,63.2579035381787,2.17369762866292,-322.330116867714,-579.228632568585,-593.70058661743,-584.445600795152,-593.46356190287,-585.796775392111,-592.100090961496
234,0.62171273920103,130.573213597381,129.95150085818,-130.262357227781,0.310856369600515,-186.239049125623,-502.429599109426,-494.346168427204,-498.64451382574,-481.562736734777,-486.510580453905,-496.975947255443
235,16.6539072986634,135.650979850267,118.997072551603,-127.324026200935,8.3269536493317,-166.156469019712,-451.310010591027,-456.09948498357,-456.125568173506,-454.210219857079,-467.558118397865,-455.006749194989
236,-2.21366696929908,112.833753816085,115.047420785384,-113.940587300734,-1.10683348464954,-225.734255243311,-566.515931272006,-579.305175390706,-573.095069080911,-563.696974729915,-562.70918586271,-566.348659920477
237,3.38901708161575,-183.693893541349,-187.082910622965,185.388402082157,1.69450854080787,-446.645444614827,-706.20797860669,-694.159081399615,-709.057560703164,-721.634934525355,-704.197841475398,-699.081303347106
238,1.23625402816106,-138.417711635324,-139.653965663485,139.035838649404,0.618127014080528,-405.503632463282,-671.353299263079,-664.745182125946,-671.686553472216,-681.847896327643,-685.216087544337,-678.027095652913
239,-5.80923786768108,-68.2815357684158,-62.4722979007347,65.3769168345752,-2.90461893384054,-366.265463286152,-670.05862867157,-693.958565585897,-678.090180490282,-680.515628199501,-678.82406974418,-681.7756591902
240,8.60353308153572,-48.8812091569998,-57.4847422385355,53.1829756977677,4.30176654076786,-378.108896781487,-698.733051324438,-698.320693061978,-688.404589015263,-690.9207569141,-682.274509711744,-684.59054850234
241,1.4835370828514,-128.042315340892,-129.525852423743,128.784083882318,0.741768541425699,-470.621932709983,-811.718012996222,-805.826771747699,-811.375812506361,-813.859597901581,-812.079718394089,-808.013413418579
242,-21.8999302186421,40.8401854205003,62.7401156391425,-51.7901505298214,-10.9499651093211,-305.653759228619,-674.04763409638,-679.360521324095,-680.006701662467,-685.446403940528,-681.629205917066,-683.750666891283
243,4.06377689860528,-115.059639084473,-119.123415983078,117.091527533776,2.03188844930264,-437.535842012541,-755.948268042004,-760.249908730795,-756.655017745856,-751.901946146856,-770.921191993606,-772.902725472493
244,4.11019000937813,-1.34077322116354,-5.45096323054167,3.39586822585261,2.05509500468906,-359.314629515793,-713.178295801044,-713.864511805616,-720.784211687918,-719.780150006089,-706.463960078981,-712.053326826659
245,-3.69655586907174,206.668283311446,210.364839180518,-208.516561245982,-1.84827793453587,-954.543730393765,-2119.45229996805,-2139.44391959751,-2122.83579317841,-2117.1533324199,-2119.54535461561,-2129.50814106516
246,9.91221847254201,61.7304938881134,51.8182754155714,-56.7743846518424,4.956109236271,-2410.17599374829,-4872.17026291214,-4871.21843553893,-4862.57272845384,-4867.58631911787,-4883.01447782537,-4872.20672068701
247,2.08514677386847,126.186241742864,124.101094968995,-125.14366835593,1.04257338693424,-4554.17138008239,-9232.44385513378,-9216.16186473615,-9240.40006682277,-9233.26347256685,-9243.21366108209,-9239.68774608945
248,-2.80198895727517,313.259311595699,316.061300552974,-314.660306074336,-1.40099447863759,-8030.26224645071,-16376.5857934544,-16365.3506147027,-16358.3558785201,-16339.4355311983,-16378.044759807,-16367.912378644
249,2.49924216544605,209.030689392006,206.53144722656,-207.781068309283,1.24962108272302,-14819.7529588421,-29846.0373649107,-29849.8982203543,-29815.2247306366,-29803.9641453271,-29857.0072548804,-29849.8541584862
250,-10.6266878314782,925.80309562714,936.429783458618,-931.116439542879,-5.3133439157391,-35330.3557911411,-71597.1413657408,-71618.2752626594,-71548.9382302764,-71505.7115883935,-71643.142316893,-71630.0497351681
251,1.27515518173459,335.902113330318,334.626958148583,-335.26453573945,0.637577590867295,-14922.3761116671,-30179.3791814829,-30201.7054346768,-30169.0653989507,-30136.9705750964,-30205.5454855357,-30198.8636309226
252,-12.4676867779053,160.42667598321,172.894362761115,-166.660519372163,-6.23384338895266,-8436.45927971342,-17045.812922188,-17070.2489741841,-17029.0633657155,-17030.5111968706,-17064.678760283,-17063.9712876206
253,5.65499367614393,2.76248314903933,-2.89251052710461,0.0650136890326394,2.82749683807197,-5001.61498360059,-10000.3374566741,-10004.211838689,-9991.06166503771,-9972.65115578976,-9998.10880727676,-9999.13954916655
254,0.270889288658509,-106.001248246321,-106.272137534979,106.13669289065,0.135444644329255,-2890.4829007668,-5674.69366399862,-5674.53917477175,-5677.15474763082,-5659.20448216051,-5690.40139215131,-5673.47319029542
255,-0.167397456243634,-438.763398805691,-438.596001349448,438.67970007757,-0.0836987281218171,-1836.70938573858,-3234.82277012771,-3216.98872868778,-3241.37810615159,-3222.31089425,-3223.14478251722,-3228.62604343341
256,9.86025975411758,-205.718980402977,-215.579240157094,210.649110280036,4.93012987705879,-905.906814674658,-1596.23438919222,-1591.87744269083,-1575.47078973707,-1578.63019349665,-1585.45410468004,-1587.45190858439
257,3.55356308098999,-122.575506900059,-126.129069981049,124.352288440554,1.77678154049499,-856.022882461446,-1585.91669494184,-1575.17463673261,-1569.61366704194,-1593.9361825599,-1570.86760517483,-1583.49964358035
258,7.18169576823129,83.243613133207,76.0619173649757,-79.6527652490913,3.59084788411565,-673.467586576793,-1422.99709051856,-1430.12057095804,-1429.90699305682,-1423.65747392428,-1445.36383314387,-1426.84048703316
259,11.3922328873014,-45.7913001348497,-57.1835330221511,51.4874165785004,5.69611644365068,-761.793357374598,-1466.40318172704,-1462.29383762492,-1459.1672962736,-1471.51710585292,-1467.11583474503,-1466.21012120522
260,-7.06523891258985,-47.7377586108923,-40.6725196983025,44.2051391545974,-3.53261945629492,-740.113938314433,-1439.55535693056,-1447.06003056609,-1432.53327134121,-1430.58337011997,-1424.62340844155,-1426.03976862764
261,3.06398332447861,-88.0655548143259,-91.1295381388045,89.5975464765652,1.53199166223931,-779.474534110297,-1467.81953008179,-1485.47677924312,-1471.99946298802,-1484.01168798743,-1494.08412720042,-1484.72495878511
262,-5.82042344036745,149.121673630812,154.94209707118,-152.031885350996,-2.91021172018372,-576.459346186239,-1307.86078944366,-1303.1305979476,-1315.6626217007,-1308.43777807354,-1314.51422700824,-1302.9544474803
263,-0.765860596235143,100.205460160214,100.971320756449,-100.588390458332,-0.382930298117572,-615.72194491337,-1332.41521058319,-1339.57899675469,-1341.60336643175,-1346.08784477582,-1352.91095459173,-1352.81268066115
264,-5.54050014831591,-169.308733739133,-163.768233590818,166.538483664976,-2.77025007415796,-792.970516217814,-1422.17279884481,-1414.65072633923,-1426.76792964892,-1412.36039240906,-1409.58435685487,-1427.68335673859
265,-5.5494333775132,24.9600152323255,30.5094486098387,-27.7347319210821,-2.7747166887566,-647.405806689771,-1325.32106198938,-1329.36902072161,-1313.69846569592,-1332.45769719413,-1319.16291832749,-1325.98155086424
266,-5.61030280025443,-124.435461927118,-118.825159126864,121.630310526991,-2.80515140012722,-793.930348147667,-1469.03553716847,-1448.19058504599,-1468.64772639095,-1451.74064333938,-1439.46264838788,-1455.937627051
267,5.1033687228919,-44.4446769284841,-49.548045651376,46.9963612899301,2.55168436144595,-711.871588851427,-1374.19513205148,-1359.55006483899,-1367.39265241075,-1361.9860720468,-1356.79117659869,-1369.65443327167
268,-3.50443476924556,-17.1430403822451,-13.6386056129995,15.3908229976223,-1.75221738462278,-679.781779151846,-1345.92495269069,-1351.38453233644,-1348.21439878992,-1349.59426128323,-1352.02258008014,-1352.11459563629
269,-8.37838252980146,16.8520167132956,25.2303992430971,-21.0412079781963,-4.18919126490073,-626.360604025525,-1277.95160729415,-1301.38485723757,-1291.42199054835,-1297.64360273653,-1295.27905238717,-1289.77651164445
270,5.86354824536829,-62.1993447068671,-68.0628929522354,65.1311188295513,2.93177412268415,-708.118764269588,-1348.17463558694,-1357.87278046686,-1343.28353001305,-1347.17015353206,-1366.26033308942,-1363.63162267127
271,-10.3276022475911,-112.702120345697,-102.374518098106,107.538319221901,-5.16380112379557,-712.343735625778,-1322.31295315345,-1331.13888691331,-1326.84553676489,-1322.41521612057,-1326.91692494717,-1323.35546100448
272,-3.12079372716835,5.43046835952555,8.5512620866939,-6.99086522310972,-1.56039686358417,-636.824405649764,-1282.20007338622,-1287.96078366198,-1263.95641159001,-1266.52230371904,-1268.0525000811,-1268.20295273827
273,15.0293821043451,157.946990535129,142.917608430784,-150.432299482956,7.51469105217257,-505.917773465975,-1154.75315536273,-1158.01850332186,-1164.42627892151,-1169.55944987273,-1164.44817632335,-1168.11979089092
274,8.90074065650697,95.0194528355787,86.1187121790717,-90.5690825073252,4.45037032825348,-563.626845693172,-1213.37240356542,-1204.96751273001,-1214.37919268321,-1209.09809031559,-1193.58723399017,-1203.39261181277
275,-5.366530279367,7.6747774585383,13.0413077379053,-10.3580425982218,-2.6832651396835,-598.287459591476,-1209.61622692086,-1200.65421494757,-1207.3166951717,-1199.88937679309,-1203.12313747243,-1212.29838812511
276,6.07740387055674,-34.7742257154023,-40.851629585959,37.8129276506806,3.03870193527837,-607.049992556509,-1173.24835552706,-1180.44054915098,-1186.13266248209,-1181.12332871198,-1186.00880580951,-1169.99690764866
277,-10.2756223249016,-75.6066364962026,-65.3310141713009,70.4688253337517,-5.13781116245082,-650.458353016365,-1235.58569186143,-1244.88755825674,-1223.10913560743,-1231.23829248958,-1239.68608771867,-1231.92337564597
278,3.85615913331276,161.703055962862,157.846896829549,-159.774976396206,1.92807956665638,-440.610365563145,-1039.06762795584,-1038.20107900864,-1031.18008816981,-1030.33662058247,-1037.18466008041,-1043.83957442286
279,-1.59366740545374,-17.5235764059762,-15.9299090005225,16.7267427032493,-0.796833702726872,-571.507536629229,-1127.08516425794,-1123.21142420755,-1126.19318411281,-1130.0166288632,-1133.48166477974,-1136.04804546622
280,-2.84331201258465,60.4979030292016,63.3412150417862,-61.9195590354939,-1.42165600629232,-505.907799670924,-1075.15681438363,-1074.30733646278,-1083.17717977974,-1078.91984468378,-1083.64167601403,-1076.78260249854
281,5.53195659042103,70.150409763417,64.6184531729959,-67.3844314682065,2.76597829521052,-505.017251042373,-1074.65295525774,-1081.40977970374,-1082.40219853542,-1055.29034861783,-1084.53543443364,-1076.7393792221
282,5.2535308249935,143.808974430634,138.555443605641,-141.182209018138,2.62676541249675,-441.542457073534,-1021.64035775271,-998.202409730817,-1019.97990696039,-1015.53086301917,-1029.23518687254,-1015.09597357758
283,2.60985041898675,-54.7183215844561,-57.3281720034429,56.0232467939495,1.30492520949338,-596.972793140609,-1136.61741427777,-1137.80136248589,-1140.28337137989,-1145.08081328054,-1130.00743141075,-1161.23526051003
284,-3.27669348591007,-17.101061259571,-13.8243677736609,15.462714516616,-1.63834674295504,-566.564619596553,-1119.30487141944,-1110.68276936735,-1111.24261974479,-1104.71647417604,-1107.10994479861,-1109.490245992
285,7.22316549360403,-75.0004148964654,-82.2235803900694,78.6119976432674,3.61158274680201,-591.09361740126,-1099.96365441245,-1124.44268717972,-1099.03824161433,-1106.97858806435,-1115.26846536959,-1104.52463378545
286,-9.18471739898087,-110.862378604623,-101.677661205642,106.270019905132,-4.59235869949043,-605.880060573065,-1110.08245994049,-1114.01032376409,-1120.33272480872,-1114.72553791295,-1108.46366268091,-1101.61514818866
287,-17.2372055121523,-28.0012309500016,-10.7640254378493,19.3826281939255,-8.61860275607614,-532.530331578484,-1054.29663771912,-1070.50116562768,-1051.03520119109,-1046.8841471773,-1059.35151351985,-1064.31421973041
288,5.79391630293685,41.2120505971252,35.4181342941883,-38.3150924456568,2.89695815146843,-515.447253151986,-1066.31264059816,-1059.78659574428,-1063.06093973384,-1075.70746470438,-1060.27893296402,-1062.63820125716
289,4.42926222344977,57.2054276909039,52.7761654674541,-54.990796579179,2.21463111172488,-591.383737308963,-1235.54364008538,-1222.18564950075,-1230.21182871179,-1234.86310356116,-1237.45628518451,-1221.93216342328
290,5.05595936480677,226.065779282653,221.009819917846,-223.53779960025,2.52797968240338,-558.343148311062,-1337.69611653997,-1353.24113667378,-1338.30285924076,-1346.13018632183,-1343.13119197779,-1338.52953581288
291,11.2862007807125,109.016210368514,97.7300095878018,-103.373109978158,5.64310039035627,-868.304120019442,-1834.33824962669,-1828.53684586342,-1834.5455427781,-1835.08082141072,-1837.5188827182,-1826.68049486398
292,2.84368006984005,392.098598800891,389.254918731051,-390.676758765971,1.42184003492002,-1018.32525726556,-2425.90543326217,-2433.92849885218,-2423.33186062184,-2419.91737781995,-2423.46077569405,-2438.7490287282
293,-6.51899258434423,634.74385949201,641.262852076354,-638.003355784182,-3.25949629217212,-2024.99434407595,-4691.25154022826,-4692.75463566478,-4673.62885019902,-4675.22879428972,-4704.24111967249,-4685.82461722867
294,-0.661480373208178,390.45938061105,391.120860984258,-390.790120797654,-0.330740186604089,-923.621005689012,-2238.36287236228,-2240.17775254953,-2240.25648856864,-2219.75773122619,-2244.83858389527,-2242.45535286699
295,3.04128313876572,103.591843487549,100.550560348784,-102.071201918166,1.52064156938286,-728.767264407667,-1558.08508916412,-1555.2140103628,-1542.25422192118,-1548.789974343,-1554.47092305115,-1553.78578888028
296,3.67065314378124,136.986863647355,133.316210503574,-135.151537075464,1.83532657189062,-487.584958293781,-1108.48612709114,-1117.91328353083,-1120.83522717954,-1126.40621966906,-1107.68964653986,-1123.88376757328
297,4.81217446367373,219.228438779275,214.416264315601,-216.822351547438,2.40608723183686,-299.532731368454,-813.481727052509,-808.090464546112,-817.205702120031,-793.218579607696,-810.780179451744,-812.632059657015
298,-12.2840899760486,94.9550205346895,107.239110510738,-101.097065522714,-6.14204498802428,-289.120836114351,-685.48078273944,-689.118916963838,-687.852629836794,-692.925630740268,-680.591332325566,-679.869473051105
299,-7.29902085277718,-56.0473762051843,-48.7483553524071,52.3978657787957,-3.64951042638859,-344.588390463541,-640.428425574675,-657.301027856825,-639.280124028766,-646.982474556833,-654.70876168675,-651.59283334596
300,0.0638170789752621,-110.836558352574,-110.900375431549,110.868466892061,0.0319085394876311,-399.740077548573,-688.579779665597,-687.486033244873,-688.279666717775,-685.372100794077,-683.278191092017,-692.417507859849
301,-9.40638548936113,-69.3036150407279,-59.8972295513668,64.6004222960473,-4.70319274468056,-338.814316717762,-617.731403884158,-603.176792795217,-600.271034976846,-617.078327058291,-607.703918011364,-614.567108117597
302,12.2602410911932,208.114789988555,195.854548897361,-201.984669442958,6.13012054559658,-126.255506420304,-448.36556173797,-452.889048804238,-451.160954538442,-448.163898201281,-442.317034785345,-438.060777940031
303,15.119468185032,97.4399727273267,82.3205045422947,-89.8802386348107,7.55973409251601,-196.408036721099,-475.136577984493,-466.054209061607,-474.18678926368,-460.403890465823,-475.337120661628,-471.807137255149
304,-9.84493789824774,47.0035590585321,56.8484969567799,-51.926028007656,-4.92246894912387,-220.647230199349,-498.142957355478,-498.50859454897,-509.457483848993,-500.231381564663,-494.522351246735,-493.219677468063
305,-0.634010176727315,62.5020898456278,63.1361000223551,-62.8190949339914,-0.317005088363658,-199.797985896526,-462.732071815408,-457.832573457417,-461.262450119801,-462.319899735128,-466.183420600428,-461.64134571905
306,9.85966650515911,2.87029892439023,-6.98936758076889,2.05953432818933,4.92983325257956,-221.401115494125,-435.812863407482,-422.479753909254,-433.089802878007,-436.064913584589,-443.655856306345,-435.464767963946
307,1.39339549510623,-156.472389098722,-157.865784593829,157.169086846276,0.696697747553117,-307.191653591901,-456.517522589973,-451.684482635435,-463.006838036119,-453.709068002412,-442.905217375461,-454.328552495223
308,-9.71173080653534,16.6502508356061,26.3619816421415,-21.5061162388738,-4.85586540326767,-169.285983666006,-364.933948974154,-360.467977260996,-354.116217348463,-341.092908077408,-361.812418462709,-371.15761238063
309,-3.67736721335677,189.320272086014,192.99763929937,-191.158955692692,-1.83868360667839,313.252328613715,433.507017928059,426.208724983822,434.024079609546,417.948360870185,414.051489833568,437.52084680149
310,5.27306648119702,-50.7133082314976,-55.9863747126947,53.3498414720962,2.63653324059851,758.829553643023,1573.64548199874,1545.92005631764,1554.12209571523,1548.43488768907,1568.87363398718,1570.35393796233
311,-0.000141977914609015,3.01174658763921,3.01188856555382,-3.01181757659651,-7.09889573045075E-05,1818.53984200642,3634.06779544728,3644.06746758084,3644.95171354976,3637.8320159585,3647.23260239227,3659.27790885366
312,-12.979206563381,-201.771931995783,-188.792725432402,195.282328714093,-6.48960328169051,3375.04563510223,6938.88399563686,6945.35634714656,6937.34300581264,6926.80372819342,6935.64641372798,6934.94116623304
313,-3.36192208563443,-168.278098416515,-164.91617633088,166.597137373697,-1.68096104281722,6583.71741555448,13332.3510074398,13342.8673750032,13325.2184667708,13304.1142860029,13329.600901869,13329.8924420057
314,-4.79153636100818,-361.000985233899,-356.209448872891,358.605217053395,-2.39576818050409,16362.5846843945,33081.378817662,33100.9931983423,33076.1699020709,33045.4239612826,33120.8622333294,33097.0305369374
315,-0.593614600395085,-219.703660599305,-219.11004599891,219.406853299108,-0.296807300197543,6955.81252044509,14130.7350868891,14148.4607651351,14127.4444942399,14106.423664044,14150.4159905779,14144.3331914099
316,-1.05457171468879,-39.644821749127,-38.5902500344382,39.1175358917826,-0.527285857344395,4111.4110680656,8261.41238616564,8260.23339309308,8258.41915100787,8248.67661385966,8265.01364294754,8267.27899997804
317,2.12875861112843,-74.8896403269609,-77.0183989380894,75.9540196325252,1.06437930556422,2478.35437947923,5033.72715789656,5035.97471975256,5024.88347536992,5034.43362302505,5043.30226872294,5030.56191390561
318,3.50606101891026,-136.615202327375,-140.121263346286,138.36823283683,1.75303050945513,1474.94303022843,3090.00732380315,3105.81759836306,3090.90207551001,3108.40368093137,3102.47160029781,3098.74451368648
319,9.79208367626416,8.40740431623999,-1.38467936002417,-3.51136247810791,4.89604183813208,961.305930674862,1923.99654070975,1919.21744616123,1926.98149040769,1916.67953802267,1920.68084389486,1920.42730536798
320,8.20123710125335,58.325730566401,50.1244934651477,-54.2251120157744,4.10061855062668,655.703601001456,1261.28270853776,1247.98860056614,1269.63786509424,1254.02781356199,1259.3357738746,1265.1737965529
321,4.74388141508098,-258.475697065878,-263.219578480959,260.847637773419,2.37194070754049,411.366581603608,1085.95274168818,1093.47106815531,1083.43862509847,1098.5070235293,1109.50696014304,1098.46540263569
322,-3.13413459065487,-69.9773151957197,-66.8431806050648,68.4102479003923,-1.56706729532743,574.809321649693,1216.46182390445,1205.26692168915,1206.63353660994,1208.30869560555,1201.01026730446,1207.49689899257
323,-7.3634352881636,-123.863312135742,-116.499876847578,120.18159449166,-3.6817176440818,510.322964668099,1137.14580618378,1125.90655441882,1129.12644254399,1154.24772097525,1153.09509275711,1139.73806435717
324,2.15188486207626,1.45473729888909,-0.697147563187173,-0.378794867850957,1.07594243103813,622.300344147283,1245.29783585775,1230.66329448935,1221.63214513555,1220.97476787167,1221.75036695795,1217.77682622889
325,-1.24643422436202,50.6834161204752,51.9298503448372,-51.3066332326562,-0.62321711218101,643.887777976284,1235.84570560773,1229.46302665339,1238.02726582339,1218.47833754789,1235.94912312526,1233.79945366958
326,-3.344867251697,-73.2773320507549,-69.9324647990579,71.6048984249064,-1.6724336258485,576.627364205138,1223.18719320933,1229.72152847596,1219.45884672311,1202.34162576144,1205.8900951714,1232.43821066763
327,-4.20452677964931,-94.5040652910247,-90.2995385113754,92.4018019012001,-2.10226338982466,558.633195925722,1207.56593036282,1216.68301327745,1212.40959603712,1223.15704840727,1214.60917107819,1218.74375504663
328,0.451365168584744,-391.806657615001,-392.258022783586,392.032340199294,0.225682584292372,328.070421033524,1048.39886485063,1038.80337350143,1048.06516807643,1054.07309039877,1047.87817661319,1043.44008520761
329,-4.48631498846225,-3.75497443028144,0.731340558180818,1.51181693605031,-2.24315749423113,605.985175230526,1211.23900990287,1232.8936558268,1207.19245452053,1212.21875416287,1208.36240250731,1215.97648106355
330,1.96285523934057,-122.590118650609,-124.552973889949,123.571546270279,0.981427619670285,513.240462962989,1151.03389981593,1156.98029697078,1143.76883522622,1163.64351763352,1156.01496869299,1150.64767216609
331,13.9942449645605,2.53385951943346,-11.460385445127,4.46326296284678,6.99712248228025,622.021560985362,1255.50350741585,1253.87918675918,1256.98197345799,1248.54931470146,1258.02522165276,1249.77837419393
332,4.94446150850854,-102.453961928695,-107.398423437204,104.926192682949,2.47223075425427,536.296087510404,1179.99059845801,1178.77728326042,1186.62846320128,1171.20512470196,1187.76040354202,1188.41322868218
333,7.89714190387167,-166.287030771782,-174.184172675654,170.235601723718,3.94857095193584,495.463313140179,1165.11079895601,1162.93759050246,1173.12197461273,1164.32112364602,1168.40428043759,1171.83304148374
334,-6.42721830608207,-94.4639633666084,-88.0367450605263,91.2503542135673,-3.21360915304103,552.635799547221,1193.30834415497,1189.36008286133,1206.81137106416,1214.54549258796,1192.00221139847,1197.91018720213
335,-6.10940780493547,-35.0231780540489,-28.9137702491134,31.9684741515812,-3.05470390246774,583.889350934754,1196.69247211862,1184.55910342126,1191.59740437625,1202.62371353601,1204.71787324309,1197.95530807076
336,-17.4962593450618,-16.170519512496,1.32573983256589,7.42238983996504,-8.74812967253092,620.322532677106,1239.31932552165,1244.79029634097,1231.1928351493,1230.2692184519,1247.28278549114,1247.55488344893
337,2.5336003053817,-144.288119162899,-146.82171946828,145.554919315589,1.26680015269085,526.497813846901,1199.81734716208,1216.8397264292,1207.47574313811,1197.66135473893,1200.09512362149,1193.11468410451
338,2.18227410202962,-144.509751677164,-146.692025779194,145.600888728179,1.09113705101481,520.635373390702,1187.9627725606,1192.51253952156,1196.96184598297,1201.33704591714,1210.91690538137,1195.67130472654
339,-4.18975865392713,-35.2747181728482,-31.0849595189211,33.1798388458847,-2.09487932696356,610.550497909368,1252.18595533766,1250.44993981495,1246.49573922035,1242.80878981383,1240.47353229948,1251.62622284112
340,0.169719817640726,-180.541484769958,-180.711204587598,180.626344678778,0.0848599088203628,490.861827468034,1162.43485952367,1160.32692834677,1155.01384319307,1154.43795770704,1144.8189596216,1166.66109864559
341,7.89165989874164,-80.1963056397799,-88.0879655385215,84.1421355891507,3.94582994937082,564.158562623663,1216.40509078585,1202.91875021457,1194.74091759743,1209.90806733776,1199.25684505011,1205.06549126454
342,1.15131191053661,-95.3473744825169,-96.4986863930535,95.9230304377852,0.575655955268303,566.362064783723,1229.2228159605,1208.57362912197,1223.94350565525,1221.58869313338,1225.12699750724,1203.01089667011
343,5.89883376320358,10.9529145380366,5.05408077483298,-8.00349765643477,2.94941688160179,641.787082446259,1278.52008411768,1288.9873605303,1292.06560500155,1276.69333539676,1283.19066661713,1291.23799023859
344,7.22014664704329,-2.33740182468318,-9.55754847172648,5.94747514820483,3.61007332352165,635.340060988732,1280.23767044919,1282.1278111607,1274.76519359738,1277.10245103957,1281.10016083665,1272.42453706899
345,0.866931694035884,-51.3719599110482,-52.2388916050841,51.8054257580661,0.433465847017942,606.595783771947,1265.43045914898,1284.94887693564,1270.85942282577,1269.30437403513,1276.32581102409,1279.88170863618
346,-7.67333775517181,-21.2830810485466,-13.6097432933748,17.4464121709607,-3.83666887758591,626.666159396467,1266.94206208631,1254.91031281225,1261.00555839553,1267.04821026803,1274.43705394748,1266.59663363066
347,13.1493282006122,-11.1270303480851,-24.2763585486973,17.7016944483912,6.57466410030611,624.592273760529,1273.46090606975,1255.31052666591,1267.50078488491,1254.95518504677,1269.85184328258,1272.04798854853
348,-9.72263602155726,60.498647513421,70.2212835349783,-65.3599655241997,-4.86131801077863,704.602829554889,1338.9843755748,1337.70927104526,1337.0768101447,1355.32344811258,1342.85452033937,1348.22785536348
349,-9.07551874467754,-119.890689350606,-110.815170605929,115.352929978268,-4.53775937233877,549.268170983938,1209.3515125738,1194.70550970579,1182.44382817132,1181.91043840002,1185.15271047605,1190.43445534396
350,-5.74836150987539,-111.204337145755,-105.455975635879,108.330156390817,-2.8741807549377,543.441851090029,1192.33967781594,1219.23380626578,1206.59901466555,1201.39745887896,1193.56715974398,1197.73378511544
351,-7.20822923406377,-136.603705152287,-129.395475918223,132.999590535255,-3.60411461703188,532.288233375963,1193.97194267015,1204.10022126447,1204.36271537081,1211.84778493727,1196.62650346931,1205.40661106116
352,9.12614067090908,-15.5899491172459,-24.7160897881549,20.1530194527004,4.56307033545454,619.861630039406,1264.43934986697,1264.08926487155,1277.38376677569,1264.58540061655,1275.56522191863,1252.35151209924
353,4.16218970555929,78.2058598482108,74.0436701426515,-76.1247649954312,2.08109485277964,680.272839199592,1286.50200825653,1296.11355637378,1273.11334636909,1268.33865993284,1290.74659672883,1270.96944527389
354,0.0859962426184211,100.718588605261,100.632592362643,-100.675590483952,0.0429981213092105,1196.00484114859,2291.37708993454,2267.96380554087,2265.02131580433,2259.93236138282,2283.06977791735,2292.71252771671
355,8.70344324223697,76.3250421712,67.6215989289631,-71.9733205500816,4.35172162111849,1990.45423927427,3913.28687961958,3910.71931290647,3918.63228156712,3919.56644564038,3935.27182097136,3923.45942925758
356,2.04661051285802,-183.642471477506,-185.689081990364,184.665776733935,1.02330525642901,3160.52561581935,6506.74031362907,6515.80009982889,6507.40891011979,6503.87723429009,6518.04304610754,6515.93583974743
357,-9.81999873631867,-196.971966633544,-187.151967897225,192.061967265385,-4.90999936815933,5375.22793249786,10937.6078328929,10960.7380312443,10940.71272592,10937.055825348,10945.1784683778,10955.6573652666
358,0.730131910298951,-94.8831398219627,-95.6132717322616,95.2482057771122,0.365065955149475,9614.28574866487,19324.184769062,19331.5113923292,19322.4321947318,19307.2294924755,19343.1327439408,19335.0386606966
359,0.436953464755788,-454.491504464415,-454.928457929171,454.709981196793,0.218476732377894,22485.6973442944,45426.3231465179,45445.4883784371,45415.7705336006,45386.916352681,45446.7878364961,45447.8980608111
360,0.19723848317517,-115.500034496596,-115.697272979771,115.598653738183,0.0986192415875848,4635.42117636076,9386.53962570129,9383.31232113682,9372.78297979425,9372.77697330181,9393.26777378118,9394.90736499449
361,1.41499208827736,43.1477074270952,41.7327153388178,-42.4402113829565,0.707496044138679,1515.12661359854,2988.52051185825,3001.4720041462,2988.80780442007,2973.48893338468,2996.18363193239,2994.63408509354
362,13.0704754221078,89.3592521339015,76.2887767117936,-82.8240144228475,6.53523771105392,-1466.07560200573,-3008.43998072325,-3010.46223182589,-3011.35814754327,-3010.87677515508,-3004.40290217559,-3010.10103214675
363,3.10945826934767,325.490153127903,322.380694858555,-323.935423993229,1.55472913467383,-4795.33005703546,-9913.04080892948,-9937.0690368916,-9918.17866632863,-9926.41259306585,-9941.38054820299,-9922.94680939845
364,-1.14475325326202,542.879416111042,544.024169364304,-543.451792737673,-0.572376626631012,-10085.9709895642,-20715.9661484927,-20721.6608861186,-20705.1610687258,-20685.2525645857,-20726.7937875517,-20727.4384491748
365,-14.2599090851727,1123.69613371295,1137.95604279812,-1130.82608825553,-7.12995454258635,-25152.4158779051,-51442.7877986083,-51441.9384926882,-51400.3557633229,-51374.6565864938,-51468.6977469054,-51460.289496701
366,3.64129863496055,409.590385063464,405.949086428504,-407.769735745984,1.82064931748027,-10817.2883377201,-22040.5257618687,-22049.0441477486,-22025.6745450538,-22022.7567666348,-22067.7060660177,-22058.810374012
367,-9.23861558930366,288.462629350222,297.701244939526,-293.081937144874,-4.61930779465183,-6246.75472579386,-12791.2106965272,-12805.3662368531,-12785.028994362,-12768.9188033299,-12801.7771075891,-12816.4984363095
368,0.269678577838931,140.657064834348,140.387386256509,-140.522225545428,0.134839288919466,-3819.02957667942,-7778.44653961534,-7766.3461419073,-7769.78034909125,-7763.88451235759,-7777.31401365201,-7772.16051123053
369,-3.30866506622988,119.995233618858,123.303898685088,-121.649566151973,-1.65433253311494,-2299.18580881209,-4721.67551630927,-4723.39760775538,-4709.16077544293,-4712.81969151463,-4734.87932862371,-4733.05394897604
370,-7.62768776368466,6.48043338084244,14.1081211445271,-10.2942772626848,-3.81384388184233,-1458.65732374655,-2931.42276863763,-2936.3516562772,-2928.01035351842,-2927.2079325665,-2933.50981713299,-2924.3468740661
371,17.5078114934149,-132.144571265206,-149.652382758621,140.898477011913,8.75390574670746,-1005.33442665095,-1861.01647054328,-1886.41714872592,-1887.49528545051,-1875.83264544318,-1878.12021921403,-1868.62150811133
372,-2.7859090383572,28.5870336146036,31.3729426529608,-29.9799881337822,-1.3929545191786,-882.097940619235,-1795.56882389143,-1790.54952006252,-1794.32804656366,-1784.32583943135,-1780.6928387403,-1791.87712692199
373,-7.39231987448875,-52.9044882835296,-45.5121684090409,49.2083283462853,-3.69615993724437,-944.301278891537,-1843.09038937403,-1833.45193938751,-1827.66300556212,-1835.0773277065,-1827.93570340774,-1831.46509702
374,-4.72955725921202,-76.0052117706218,-71.2756545114098,73.6404331410158,-2.36477862960601,-946.206602485036,-1821.13755045866,-1841.7300865665,-1839.94136694446,-1828.27768578709,-1835.39625767662,-1836.00246791949
375,-2.3568705181824,82.8432172983012,85.2000878164836,-84.0216525573924,-1.1784352590912,-824.19703069891,-1733.5941492143,-1720.43655810173,-1718.06260207744,-1720.13022679102,-1727.44468031958,-1739.573354269
376,4.21978662346373,62.6178523059643,58.3980656825006,-60.5079589942325,2.10989331173187,-817.318994253801,-1693.0360541901,-1681.20382807925,-1686.23782097336,-1680.94239401983,-1679.62809589878,-1697.96407391722
377,9.52098088673665,-10.387087189476,-19.9080680762127,15.1475776328443,4.76049044336833,-896.280943780162,-1772.65381948411,-1776.39410718982,-1770.5792906936,-1776.55863438881,-1774.37072681167,-1771.47470971433
378,1.7729792871105,-114.986584451399,-116.759563738509,115.873074094954,0.886489643555251,-1005.43725140403,-1894.11493906955,-1882.81317554315,-1893.83950457908,-1893.89656997536,-1890.46898991778,-1886.18119264254
379,-1.5359911059204,10.3469837240409,11.8829748299613,-11.1149792770011,-0.767995552960201,-885.82771986055,-1783.53841455106,-1798.77787143883,-1784.38951936804,-1792.89676002905,-1783.13377686343,-1790.79756404497
380,-7.8232445109752,10.4978843882564,18.3211288992316,-14.409506643744,-3.9116222554876,-894.716223465643,-1807.75357583052,-1798.68200227711,-1824.86305813742,-1806.81235222635,-1815.41621221017,-1789.34335568559
381,12.354168141057,26.3445113542548,13.9903432131978,-20.1674272837263,6.17708407052851,-893.937787734554,-1801.86591868231,-1798.21436102552,-1808.33999112088,-1792.78712893449,-1818.39220294059,-1806.05145410233
382,-7.07182682488929,-71.7589890425734,-64.6871622176841,68.2230756301287,-3.53591341244464,-930.60260052899,-1796.5180388403,-1778.2844138917,-1777.09658540439,-1789.65686171048,-1780.1731951508,-1782.78808942158
383,-10.8476312385174,31.6542071895965,42.5018384281138,-37.0780228088552,-5.42381561925868,-1175.55104369255,-2393.60392581322,-2402.89556365251,-2391.65816139904,-2396.30277273926,-2405.94779256982,-2397.03591155435
384,1.45110904128524,-9.92368928872747,-11.3747983300127,10.6492438093701,0.725554520642618,-1785.83116261793,-3560.28752690586,-3560.94009618965,-3533.1877826991,-3552.69049822443,-3542.84799070633,-3550.96655340865
385,3.05825237117824,103.226544301753,100.168291930575,-101.697418116164,1.52912618558912,-2614.50969899636,-5329.1876899233,-5347.98834457592,-5332.39107235085,-5334.55301260672,-5346.03315867091,-5347.42019868887
386,-4.81101273631793,131.066338830075,135.877351566392,-133.471845198233,-2.40550636815897,-4081.60531405776,-8299.08797968191,-8310.32515450905,-8298.38529954516,-8284.16925559114,-8301.79655048833,-8312.43241428494
387,6.95458818250336,-14.4224277294416,-21.3770159119449,17.8997218206932,3.47729409125168,-7010.75001350562,-14000.1230110993,-14016.7279992969,-13996.7657792104,-13992.9783013488,-14034.2678652567,-14011.4311105445
388,-14.8289885267441,347.665582459478,362.494570986222,-355.08007672285,-7.41449426337203,-15679.2892286344,-31721.0730282551,-31740.1914520021,-31711.5722479511,-31681.5211487945,-31737.9501225888,-31751.5319916658
389,8.38236412868719,-30.7152481751109,-39.0976123037981,34.9064302394545,4.19118206434359,-6408.33197334928,-12777.5663343948,-12769.9676222428,-12774.2903504305,-12755.5976873017,-12796.90179436,-12782.8376031981
390,11.0666891634173,-422.132094083063,-433.19878324648,427.665438664772,5.53334458170866,-3623.59720802348,-6813.99563280048,-6809.27165247258,-6821.76889099978,-6807.77799390495,-6820.86820989993,-6828.29775058676
391,-8.29450906108832,-112.251358907641,-103.956849846552,108.104104377097,-4.14725453054416,-1698.77203865659,-3293.58722746663,-3289.5638857648,-3289.20332070158,-3283.03737494207,-3293.47188821586,-3295.69448856631
392,-0.97453375288751,-39.4457611097605,-38.471227356873,38.9584942333167,-0.487266876443755,-626.49875575144,-1214.52628414601,-1224.5534210747,-1215.63466319075,-1217.67176975042,-1222.34404041924,-1220.39848283349
393,-0.766110493248561,-16.2384375807305,-15.472327087482,15.8553823341063,-0.383055246624281,-32.4277116173616,-49.3830961472413,-48.1360786777223,-44.7563932121266,-20.4534399187542,-38.6430416179355,-29.2577339327254
394,9.88041666572099,-71.1394274276681,-81.0198440933891,76.0796357605286,4.94020833286049,263.355231508889,607.730307111167,618.601546950173,610.965030927822,597.003123727394,613.854156799644,609.192819277028
395,-4.69495885909419,34.8141994562175,39.5091583153117,-37.1616788857646,-2.34747942954709,358.508835183849,677.508512052387,650.674778971967,662.826964545937,678.286195722088,674.197046451562,683.576640258398
396,-2.58047768397955,-121.629035217687,-119.048557533708,120.338796375698,-1.29023884198978,223.516714949161,566.08198743203,587.597603302507,578.373533408158,579.130205396825,561.476033613697,563.622150545474
397,-2.47816892020637,-39.5371063621133,-37.0589374419069,38.2980219020101,-1.23908446010319,298.086806768959,633.232550979825,623.775663063279,640.775619109714,624.402722960571,638.652937469014,643.004633124627
398,0.726277999172453,-126.820208507124,-127.546486506297,127.183347506711,0.363138999586226,240.199256059306,607.944998624909,595.863661322946,602.160160878324,602.585854665376,597.918468863703,598.987533300766
399,2.22572769635008,89.3344263152394,87.1086986188893,-88.2215624670644,1.11286384817504,452.813675434765,818.518652250641,815.621274808102,820.963019331713,802.924923366372,811.609048469079,816.582421410625
400,4.54875426751096,87.6325631001382,83.0838088326273,-85.3581859663827,2.27437713375548,431.361292634567,779.638776436506,796.506511476735,790.810983726289,794.242414436419,795.228538584022,783.626699507236
401,0.974918909050757,192.556054475514,191.581135566463,-192.068595020988,0.487459454525379,530.60300003759,869.624864508718,872.843210275634,885.149123110197,862.755916154361,874.130750705022,872.727749886166
402,3.46075033480884,101.562567350455,98.1018170156458,-99.8321921830502,1.73037516740442,489.901812214623,881.701807413599,892.645688831224,895.065781430487,886.579524836765,880.899613874266,884.477815650171
403,-8.09419453091687,267.708111795888,275.802306326805,-271.755209061346,-4.04709726545843,594.055954526528,912.309602726251,927.813859328424,896.649235838675,926.721985523589,920.017986138468,926.314279675746
404,2.72344341638382,-91.2896916046448,-94.0131350210286,92.6514133128367,1.36172170819191,308.093735717586,710.200606456201,686.72440692797,693.442026442528,690.877094602649,703.898456163588,696.50022088227
405,2.23545185202966,-122.091052340285,-124.326504192315,123.2087782663,1.11772592601483,299.106803286762,722.54011076584,729.813260116993,711.282618199417,726.046378973406,732.656750949391,731.710569715826
406,3.05945853021694,-53.6233802421193,-56.6828387723363,55.1531095072278,1.52972926510847,368.374981302739,793.432801377814,798.860777276219,782.796858228161,789.640033984586,800.716737862822,795.485641938518
