sep=, 
EKG Messung vom 29.01.2019 21.55.02
gemessen mit dem EKG Dongle der Hochschule Luzern BAT HS18

 
 , Lead1, Lead2, Lead3, aVR, aVL, aVF, V1, V2, V3, V4, V5, V6
0,-1542.45170361723,2225.80843375251,3768.26013736974,-2997.03428556112,-771.225851808616,1716.55512225067,-335.149892868399,817.910382692727,1202.55973641506,377.720295335079,-2.85823658474148,3255.37989686832
1,-4250.42110769674,6130.40897550691,10380.8300832036,-8255.61952935528,-2125.21055384837,4729.37006523048,-922.089952742697,2252.30986772782,3311.39528212354,1039.15793150321,-10.1020297777894,8963.06823445238
2,-8702.95063260871,12544.9254149687,21247.8760475775,-16896.4007312731,-4351.47531630436,9681.48993936115,-1884.89616885516,4611.21964407996,6778.44239826062,2127.78992351934,-20.9103903015789,18344.0976298636
3,-16062.1737658937,23153.9812905467,39216.1550564405,-31185.0681734936,-8031.08688294687,17868.9337569389,-3478.2875425627,8509.19683372184,12509.3572261701,3926.50353394573,-39.3634235870414,33852.8535631965
4,-29671.2928791031,42772.4457153908,72443.7385944939,-57608.0921549424,-14835.6464395515,33009.2908062101,-6425.15698207366,15720.7084511296,23111.5100977547,7256.14268708437,-70.5451085501876,62542.0071566963
5,-72587.6877736221,104668.067366983,177255.755140605,-140961.911253794,-36293.843886811,80762.4441249881,-15730.8668906288,38470.0039938516,56557.1420431685,17761.5006559228,-159.88242259974,153058.413413761
6,-29766.0913081821,42779.4009381283,72545.4922463105,-57662.4465922194,-14883.0456540911,33085.9730035946,-6373.54623912118,15733.6535241442,23120.4913840437,7248.99001782424,-117.331816442571,62489.7831897529
7,-16127.7268794924,23118.64562512,39246.3725046124,-31182.5090648662,-8063.86343974619,17920.8654020095,-3404.64170059345,8579.47869991311,12587.7752106024,4010.87852909348,30.091964520041,33924.9509226993
8,-8608.2399713743,12659.7802821986,21268.0202535729,-16963.9002678857,-4304.11998568715,9688.59550445899,-1890.82924465488,4605.99906722234,6814.45576453407,2172.39534447077,55.1793354339344,18398.1905890224
9,-4149.29136950985,6056.74522123997,10206.0365907498,-8131.39090599489,-2074.64568475492,4679.01411587953,-848.008358990751,2377.24198405115,3464.69973385759,1212.251879882,197.588016861448,9162.48989074417
10,-1402.12983068939,2315.60442041531,3717.7342511047,-3016.66933576,-701.064915344694,1732.85162214819,-252.031006808322,956.838931454634,1353.97698687352,558.581978228812,274.367946825441,3438.18911300211
11,274.113107052218,105.346221635361,-168.766885416857,31.7103318907484,137.056553526109,-51.6258282172961,65.5152289822651,138.829116347071,137.674379677306,146.438010137877,426.377408972224,165.010189435608
12,352.169784586691,92.017183777245,-260.152600809446,84.0677085161003,176.084892293345,-89.2365809876482,81.6794388341492,114.502361269238,143.740810815375,142.366903834387,220.065138074717,125.575392486876
13,30.785872799368,-0.800850043114679,-31.5867228424827,16.1937864427987,15.392936399684,-10.9646017943808,9.65751925372115,22.039225842007,40.1246070080842,49.400930776779,104.492241218879,106.524676336066
14,179.093312773403,14.5858224923754,-164.507490281028,74.9608338943262,89.5466563867017,-66.4240975875047,31.6592951060184,49.917816226077,67.7002009173875,87.9216195507427,107.35812776871,114.661645508647
15,155.605474363291,86.1477364333555,-69.4577379299358,-8.34499925170985,77.8027371816456,-18.7644152511374,31.928907427661,24.8871534906473,6.09665224837045,0.989079208374903,-0.656196772050524,9.32833337570355
16,-40.922888479196,-20.0616103057082,20.8612781734878,-0.399833933889795,-20.461444239598,10.0132359227193,-0.83480632804924,8.18770589672249,-26.119380326227,8.05663711104188,24.3840650741829,19.6988621492542
17,-0.449086669124881,150.005619762509,150.454706431634,-150.230163097071,-0.224543334562441,51.7021169950207,-47.0504724415925,-69.6405918701402,-104.566187147919,-83.7059533349473,-49.0378014851128,18.352000534001
18,-91.7330897787892,100.26991899736,192.00300877615,-146.136463886755,-45.8665448893946,81.5170541176297,-28.9689005408903,-40.8794854788015,-49.2228973008305,-43.5653770832716,-46.7116545385498,64.0391751458064
19,257.192826642918,196.813430439227,-60.3793962036912,-68.2170171177679,128.596413321459,-55.1605766388593,-49.9417570740274,66.5373713596936,94.4584147404655,44.4819886697007,39.7470395644334,278.996894028085
20,81.0563397858305,454.020705797994,372.964366012164,-413.492535905079,40.5281698929152,114.735845220902,-143.49267557036,-118.555861466883,-156.461737888065,-239.72443475002,-213.271686540463,190.652488105352
21,-267.916939112204,815.901021233939,1083.81796034614,-949.859490790041,-133.958469556102,358.755120127467,-366.307720091209,-331.643302747663,-390.992009918911,-564.921268878891,-568.885104683705,148.148991331168
22,-558.03232807016,1941.30504680536,2499.33737487552,-2220.32121084044,-279.01616403508,815.823408096818,-867.690558681888,-748.893099950391,-856.264832013341,-1234.29122647514,-1196.1611826281,378.502828265308
23,-465.346002641685,1024.78406230235,1490.13006494404,-1257.4570636232,-232.673001320843,553.008429065433,-384.113206813172,-568.120030030131,-860.909183670756,-1210.9739110592,-1109.1122211588,-240.867865139607
24,-585.340311196674,990.588104675973,1575.92841587265,-1283.25826027431,-292.670155598337,559.447450022641,-457.033515827364,-1076.51415929238,-1658.58560490652,-2167.59278269655,-1964.18213559609,-1081.40225653057
25,-1359.68736605111,1016.48988692067,2376.17725297177,-1696.33356994622,-679.843683025554,1329.70088063257,283.224508293356,-514.896036765228,-2070.07413804292,-3450.55230169505,-3301.43322026643,-2131.76072625993
26,1254.65489683123,242.007863512746,-1012.64703331848,385.319584902868,627.327448415614,-678.18886143906,-343.730689559639,1755.28929232502,1869.92674343963,2152.61584121508,2542.19039443639,2230.50776382678
27,290.023859812835,-1185.94034575483,-1475.96420556766,1330.95227566125,145.011929906417,-775.244268948901,-74.524332330138,-226.017891523,1272.1170975434,2314.29825378265,1857.73921339519,1271.79249519906
28,-140.28885344111,-340.135074511295,-199.846221070184,269.990647790739,-70.1444267205552,-24.6639751825944,150.518270704995,-244.22811859581,298.569652999847,680.371928042946,565.515428386636,324.465071536185
29,-248.254377001113,-299.723969786519,-51.4695927854068,175.596781285963,-124.127188500556,53.1039368889425,157.677466563292,-181.443419539428,153.561295069198,352.532914293808,295.295011839387,216.185236647674
30,-318.141125791066,-53.526809037377,264.614316753689,-105.543753858156,-159.070562895533,179.043690938517,93.4730651233455,-349.788717700234,-210.870973869418,-128.025201013291,-134.603385318605,-88.6167879618715
31,-136.594836708669,128.934615496631,265.5294522053,-197.232033850966,-68.2974183543347,187.201984434262,108.874516663224,-450.11716133167,-340.963075464973,-350.047840792345,-371.230630222518,-284.838403031219
32,-598.312299240746,57.0186139391835,655.33091317993,-356.174763559557,-299.156149620373,385.001910880955,114.67290858198,-648.803369939819,-699.1597139887,-753.117108161376,-734.930903246971,-508.479759532596
33,-543.134449329608,60.6261084055022,603.76055773511,-332.193333070306,-271.567224664804,405.591787263947,207.423016792785,-483.887800250874,-530.648982091289,-675.47434123715,-627.766522356761,-334.979973906353
34,-279.437721369435,126.101070536566,405.538791906,-265.819931221283,-139.718860684717,283.530946929506,161.523101953011,-300.267531648114,-368.744126520253,-466.710904326717,-431.589323345868,-159.448318052158
35,87.9588278838246,167.359212303852,79.4003844200279,-123.37979836194,43.9794139419123,16.6476969317311,-46.1049905565656,82.0096714195173,83.8304738186337,-4.16013921314942,32.4418137700832,182.174395795987
36,525.987063493319,129.879193933266,-396.107869560053,133.114337813393,262.99353174666,-355.28651268798,-314.465155815908,578.326192161425,690.076301299598,771.927563611764,727.083153695083,593.093200236802
37,608.909641821733,-68.6310183581136,-677.540660179847,373.08583926898,304.454820910867,-501.949152195353,-326.35764421086,656.799954432778,792.766497719216,961.196015349082,882.030531619733,658.007968259477
38,347.694154065199,-199.865704050215,-547.559858115414,373.712781082815,173.847077032599,-390.225749100419,-232.891640085425,628.3561985384,705.879684543032,840.004345308533,753.705327886494,519.040914265594
39,223.688841820292,57.2311464176255,-166.457695402666,54.6132744925203,111.844420910146,-192.35402118566,-218.250346968653,218.004861877072,252.134988030038,333.840544421045,273.769973774214,187.058082765257
40,26.3630691264189,-45.9831057147931,-72.3461748412119,59.1646402780025,13.1815345632094,-74.1723497125514,-75.9985245838909,158.692789086336,165.50667089731,209.3680029293,155.960510317695,141.79766133147
41,10.5568049269268,84.8510348659152,74.2942299389883,-79.5726324024517,5.27840246346341,18.6385625257959,-37.0171048873965,67.5718641920831,39.9962304310654,32.837498822495,2.60838485839638,-7.78197987220847
42,-67.2279935867173,-34.3557933000261,32.8722002866912,0.74179650666747,-33.6139967933586,7.45301866293229,-17.9661629608266,11.5523773125017,35.3604648042128,23.9418755801134,5.52803254800824,-27.3802248865286
43,-6.3836136667278,0.936644519184028,7.32025818591183,-4.12845135254793,-3.1918068333639,-30.3453410533646,-68.0109402926411,-35.4765229271806,-20.2685080076367,-35.9051910617084,-70.891017070738,-44.5189226932735
44,-51.0486964664797,-74.2285239658372,-23.1798274993575,48.7041757325974,-25.5243482332398,-4.50884806086373,14.1621313776301,97.2900187329985,116.225412757595,113.737029605031,92.3198803346798,109.988874009704
45,45.9074044379981,-9.51421391530675,-55.4216183533049,32.4679161343058,22.9537022189991,-0.872358640653204,53.6769010719985,145.525228297477,171.560577372003,169.42863009923,147.015892358754,171.356715111904
46,-151.797080089594,-48.703493966374,103.09358612322,-27.1950460784228,-75.8985400447968,59.6967927422814,16.2999993613431,73.5013692580137,74.2214979165981,74.8174381584192,73.257653684782,97.9195603506341
47,-15.7476912859543,72.810518725968,88.5582100119223,-80.6843643689451,-7.87384564297713,29.0345955525006,-30.489018906921,15.463402841394,28.0945985228841,30.4801496048578,31.639686285911,72.022253083192
48,-129.29134720001,7.71777542791779,137.009122627927,-72.3634490279226,-64.6456736000048,39.0576124255961,-58.8938977767351,-29.9179356985131,-24.2958072129297,-33.3602433821482,-36.5866711053703,-13.3152476789719
49,167.43383283749,59.3607143510094,-108.07311848648,24.3562020677355,83.7169164187449,-40.0074741439057,28.0581701986688,70.7119720346211,104.208161423374,82.9249298061611,61.9123541014028,119.945395618516
50,149.667759836895,-26.1878778367018,-175.855637673597,101.021757755149,74.8338799184476,-77.7555934111044,20.3444508513881,57.0862514773835,78.8896799834467,47.5975807958522,57.7573893088781,79.4386064980245
51,-78.2258152942049,20.54028219769,98.7660974918949,-59.6531898447925,-39.1129076471025,14.6090499980439,-69.5479974958071,-35.3098798538048,-25.1601242694157,-18.5545557133571,-35.4672565595612,-15.7941950992094
52,-14.3085790060727,-10.0337234601307,4.27485554594205,2.87943395709431,-7.15428950303635,2.24417650557629,0.213497465210537,-5.05582404453037,1.71228956154118,-27.805850214507,-18.1995861522376,11.3981837345291
53,26.0644657273274,35.870212610298,9.80574688297065,-22.8379797466343,13.0322328636637,5.34325542056575,0.880763958160856,23.2423167096326,-3.23625772722312,-38.4877930271951,-17.5314761757224,23.3872933537145
54,-121.968250852166,-7.02800415258025,114.940246699586,-53.956121273503,-60.9841254260832,40.2594161891003,-34.4214143213856,-34.6814021267542,-64.107896712688,-95.1810494695459,-94.5435615837621,-63.9358413074115
55,-152.490781766452,-14.2231382021832,138.267643564269,-62.0222526810428,-76.245390883226,66.2796060800758,-5.70843140411716,-38.6552634206201,-66.2111006419693,-116.556100113153,-108.624353815642,-59.3316205967103
56,135.007574104637,-55.9008750254034,-190.90844913004,123.404662077722,67.5037870523183,-128.278391325852,-65.6483335216642,94.8414034553911,112.937091614122,113.02703206647,123.969268580571,202.794447710388
57,6.77238511870519,-94.464153848211,-101.236538966916,97.8503464075636,3.38619255935259,-111.096588723106,-120.956638479295,-16.1459483266348,22.603073701722,-53.836613044386,-68.2801868640846,-9.84414796017381
58,112.573128543474,103.423319493204,-9.14980905027051,-47.1367552214667,56.2865642717372,-61.0685859202132,-112.987362790156,-29.7905309574068,-88.4162038090658,-217.639986359682,-202.167463705484,-92.8059695989955
59,14.0597548171886,-142.17545647411,-156.235211291299,149.205333882705,7.0298774085943,-142.771652366568,-129.308093441837,-67.1442772722852,-104.753700512717,-301.047451617101,-274.474673284471,-118.03863708904
60,-8.17474714369064,-158.827966935534,-150.653219791844,154.740593363689,-4.08737357184532,-186.787518648892,-222.921817505941,-160.747065347491,-202.6354657459,-527.425988695698,-514.44812022623,-266.336704929846
61,-144.209453061083,-621.905589566597,-477.696136505514,549.800863036055,-72.1047265305417,-483.375859939765,-489.055583374017,-339.623986351415,-393.128696842951,-1157.76330006886,-1070.3320062146,-614.249512727449
62,-565.410527587568,260.656416969336,826.066944556904,-543.36168076312,-282.705263793784,470.962074899922,115.857205242941,-245.809014646039,-1066.05267925385,-2171.80434171987,-2288.36337559732,-1631.91697957203
63,1562.18530505436,-382.389829816457,-1944.57513487081,1163.48248234363,781.092652527178,-994.22347150686,-43.871808142907,2298.28976277129,2789.48740663462,2984.46584758891,2688.57736417742,2043.08298942131
64,-49.2528237098591,-660.351245841548,-611.098422131688,635.724833986618,-24.6264118549295,-464.454954516103,-317.811486900517,-645.939106256336,-172.638288895217,293.65081908343,489.898114350271,484.572066530857
65,-530.515028898639,-266.086484952933,264.428543945706,0.828970503613164,-265.257514449319,188.502913386024,112.577282826342,-601.732549473438,-402.807534933362,-253.411387556486,-154.171288912937,-164.061869331385
66,-196.216269177568,-145.94277203931,50.2734971382579,47.8346374505261,-98.108134588784,107.880871126039,165.48824511382,-336.18905848024,-270.769170345431,-184.586424915984,-124.815304442061,-79.0111595188364
67,-276.632058864717,-3.52567026350607,273.106388601211,-134.790359168852,-138.316029432358,190.22917489735,107.35196119349,-508.771187943259,-476.23657164298,-459.217466536425,-389.097076044531,-279.338762866589
68,-204.926823888606,-21.9526423776902,182.974181510916,-80.5107695666129,-102.463411944303,217.598005194545,252.221828878173,-446.643224912217,-415.71909786333,-445.141371632383,-378.752770249936,-239.466532332798
69,-475.16533478199,31.1568293674713,506.322164149462,-268.739496758466,-237.582667390995,385.254100842331,264.1860375352,-653.67555313226,-729.841875939327,-836.036623735379,-775.567668126774,-504.357140438813
70,-349.181426628475,-29.3046241801894,319.876802448285,-145.286089134048,-174.590713314237,274.947123038607,230.017443628929,-371.357620175539,-445.961965934141,-575.63005616526,-495.926999506015,-297.691357028304
71,239.29396916519,54.4993187890759,-184.794650376114,65.1476657935191,119.646984582595,-45.9547893361549,92.8850717038042,28.1796907093002,-23.3873563761938,-145.491563991887,-111.089679144722,-12.7147091696706
72,510.146267543675,-77.7374129423642,-587.883680486039,332.810546714202,255.073133771837,-378.657487961349,-169.43129543666,631.1617911541,694.704310999814,752.421522548909,736.773392282144,578.136882874153
73,875.912288077088,-101.746990765513,-977.659278842601,539.703134804057,437.956144038544,-667.828337113881,-357.99739538516,952.373092571294,1070.5878216947,1279.95156601346,1197.31279512499,800.015488466526
74,545.921740543848,-102.614010526374,-648.535751070222,375.574880798298,272.960870271924,-439.908554677914,-231.281358285606,489.744380462273,546.053103968764,649.55542211833,604.245113904984,365.953250140228
75,283.088994457228,-141.734888587482,-424.823883044709,283.279385816096,141.544497228614,-254.15362829454,-83.4833735443697,328.740490876716,343.279832160692,417.751166559533,417.126993299395,321.259979768091
76,119.331598904592,-40.9646309836548,-160.296229888247,100.630430435951,59.6657994522959,-117.512343014252,-74.7284561402564,163.061312328515,171.282003977353,203.83332497315,134.67170061024,33.224552109049
77,5.43973647788971,-19.4214251398494,-24.8611616177391,22.1412933787942,2.71986823894486,-4.40067577240376,16.0598100729316,66.8248900523066,113.053277708681,110.5474892638,90.8490019796011,-27.9144680757431
78,-18.4592927185936,-123.396183076237,-104.936890357643,114.16653671694,-9.22964635929679,-18.8602135260935,67.2164633054563,125.555713215561,130.063681675044,134.940151751693,101.944919873501,83.8035542742005
79,13.3530658584214,-45.8989210052041,-59.2519868636255,52.5754539344148,6.67653292921068,-25.4500075284911,8.35197180664335,76.6342005109586,103.584681698653,93.7447517167522,59.014070007708,8.08733341405878
80,168.871170896218,-17.6610359101619,-186.53220680638,102.096621358271,84.4355854481089,-82.2593460654472,22.0135146754853,81.0273014735153,91.3918756760008,83.2161420890268,54.1814604392461,60.5456334472924
81,118.364016199814,-16.8236112972745,-135.187627497088,76.0056193971814,59.1820080999069,-62.7309183748131,9.72579074746204,55.6196577666408,61.8393488031156,40.6190354984029,42.191993739851,48.0500657137818
82,-2.41284522754631,-126.772476731352,-124.359631503805,125.566054117578,-1.20642261377316,-51.6291880581251,21.1012553875551,64.7175931638886,76.3798099908229,68.4342331382021,69.0357819297355,49.2705413789695
83,103.798020979365,-42.5630790813402,-146.361100060705,94.4620895710225,51.8990104896823,-75.1118218997503,-3.86254373879575,44.2402761673745,29.3020816621829,15.9949389153224,-3.50212886128891,-32.6600545794772
84,73.6330989967041,-122.531284566263,-196.164383562967,159.347834064615,36.8165494983521,-66.3727157975495,63.4189519678681,104.595102145669,89.509200613714,73.9166318606796,79.9176201315192,82.7034445181462
85,42.0411048866313,82.5849961687586,40.5438912821273,-61.564443725443,21.0205524433156,11.2411745447429,-18.0615421926416,-18.471850988545,-47.8392249279766,-28.3392915250239,-24.7095323903549,-25.806878261651
86,-152.438531964619,-172.322033006243,-19.8835010416233,96.102767023933,-76.2192659823097,-32.3641347500634,-44.8447684585036,-76.5369698506873,-68.0862387362661,-46.0226901877593,-54.3067825168349,-104.549406129068
87,-273.430411263755,-160.376966232952,113.053445030803,23.6617606010748,-136.715205631878,54.6933032209027,-3.66683858899734,-19.8329396935708,-37.5126728910222,-50.9442402676472,-71.3879517853322,-95.3497307355374
88,185.751066492477,169.719908603092,-16.0311578893848,-76.8443753568538,92.8755332462385,-6.69929483241333,2.6325682245581,-59.8829954532109,-55.6775072918317,-57.2181027779696,-27.3142988942648,-46.2895408471645
89,-4.53510413130107,-170.327596768277,-165.792492636976,168.060044702626,-2.26755206565053,-16.2186137180145,133.355265200947,80.3244584925585,27.9888614989188,-30.290486412991,-29.8885401440677,22.1444515103967
90,117.822854686064,-14.7929025505973,-132.615757236661,73.7043298936292,58.9114273430318,-42.3061797043247,48.0033978280117,-26.0330194187617,-120.386330989047,-164.721193745578,-166.772908501977,-162.845484026102
91,76.0737494605864,-19.2789242268836,-95.3526736874701,57.3157989571769,38.0368747302932,-1.83748313733045,91.6777074128092,-99.1596622309532,-261.940215263278,-339.684505697287,-347.588766345698,-293.171284642162
92,-209.195230252441,-48.7147404646512,160.48048978779,-55.8828746615693,-104.59761512622,118.274083404591,76.0676770213927,-310.09076436068,-589.588007202047,-737.295750409453,-686.745325788239,-585.01912511257
93,-399.310705809135,-29.0357795718719,370.274926237263,-170.619573332696,-199.655352904568,220.581323451562,70.8877206658617,-808.357260035833,-1323.48462253684,-1575.53406841158,-1443.01261904935,-1221.41130992636
94,-954.64627951091,-172.493762788745,782.152516722165,-304.82937696671,-477.323139755455,817.691545164079,853.230573605993,-354.47060951106,-1636.56449270226,-2611.39626152521,-2651.90502232042,-2345.11010919971
95,1670.41944580475,-2321.46245244573,-3991.88189825048,3156.67217534811,835.209722902375,-1703.32748888452,585.22692048144,1726.34203120132,2824.05981581373,4272.11903548823,4013.19468342258,1800.81387504163
96,236.556891503275,-656.923715685458,-893.480607188733,775.202161437095,118.278445751637,-179.931971590813,533.616664007106,72.3233263779848,390.121154528347,851.262466122735,618.386462475916,58.6570511142154
97,-83.7022350328443,-495.235141697611,-411.532906664767,453.384024181189,-41.8511175164222,-0.790463190479869,409.951980283807,-58.6916357439491,81.955509066966,302.242718500989,238.722842773762,-39.4099911810627
98,-154.401739016979,-202.395494915645,-47.9937558986658,125.194625407155,-77.2008695084894,124.210162861163,296.414081620992,-310.88161419656,-251.773541572979,-150.985619845397,-178.508072756766,-276.080145320091
99,-350.506757254879,-22.2318410299818,328.274916224897,-153.021537597458,-175.253378627439,350.816831884868,373.358747544838,-651.3704458834,-662.054536282094,-672.454621152554,-662.451778337406,-523.124942395918
100,-170.941806167991,115.872801021859,286.81460718985,-201.343704105855,-85.4709030839954,243.942985689357,201.071364188864,-430.322074161838,-478.156039967871,-543.628221003882,-505.328210027464,-369.410054181855
101,112.882475504095,145.458560882434,32.5760853783395,-89.0173231303868,56.4412377520473,73.5966336369227,114.617181895506,19.6991606323242,-32.9719683876999,-90.3229786543205,-50.6858432112149,42.0880316993439
102,436.58272970942,40.7267326981487,-395.855997011271,177.564632156561,218.29136485471,-315.972050514577,-236.088104017882,449.084296160316,539.413229425582,648.296263903938,611.613566665912,431.755200023593
103,623.974383464672,-76.0685662236724,-700.042949688344,388.055757956008,311.987191732336,-476.045740136847,-252.048530585351,705.643968040144,832.27575003719,1020.48473902488,941.409055418055,657.143399093982
104,377.191207805454,-172.32993357126,-549.521141376714,360.925537473987,188.595603902727,-411.303384066527,-273.085626756341,619.92015732186,680.684616954657,869.683771789159,774.041116647307,462.665548272414
105,225.826578396436,46.0284513435358,-179.7981270529,66.8848378546822,112.913289198218,-194.864478608848,-209.930830164796,224.35784768682,233.868291475815,360.447979447732,298.213958947121,141.318334968319
106,-3.37110998757089,-16.075618734706,-12.7045087471352,14.3900637409206,-1.68555499378544,-21.640928132432,-30.5773475177288,156.421286129634,154.906414788023,220.710272314884,174.626558971316,80.5583495142241
107,5.92403823594259,-77.254017911433,-83.1780561473756,80.2160370294043,2.96201911797129,-25.363490110156,32.4510759270637,72.007796551726,95.2622919269527,100.853508284301,71.7404850984712,-23.2530240197061
108,-7.90199171478571,-97.7415996974569,-89.8396079826712,93.790603840064,-3.95099585739285,-25.6419078064429,38.5557923697854,84.6920702257678,112.044292900721,140.956069824073,93.2354237165742,21.7510431560831
109,120.450888732519,-10.1898077098135,-130.640696442332,70.4152520760729,60.2254443662594,-80.3038200206545,-29.9669435989768,-28.8749354823532,6.41704375754398,64.0177656890721,-0.0451656402813556,-40.3485983487049
110,133.963928629957,38.5335140760185,-95.4304145539386,28.44845023896,66.9819643149785,-21.0469982348644,53.3364180842098,124.296047869535,126.294273832884,131.452763638925,126.600843518672,137.567316727102
111,98.4252272029948,-5.97297413887918,-104.398201341874,55.1855877403766,49.2126136014974,-52.0827992692082,0.232602803457667,23.4889403642204,51.1516678291864,24.2001362169661,46.6569637752332,58.6398814251534
112,19.5386892933202,-114.965887896782,-134.504577190102,124.735232543442,9.7693446466601,-35.0840114955474,64.3365541990074,108.247316895198,103.982661499414,118.823608162364,124.001847698747,91.2061428848056
113,48.0767280806067,-95.4641668511226,-143.540894931729,119.502530891426,24.0383640403034,-45.2669067326608,53.0070814664078,88.877087359659,75.8656896523401,112.222733142095,84.7804664508184,43.4716544826983
114,-15.6553584038079,-42.5141817811741,-26.8588233773662,34.6865025792702,-7.82767920190395,-2.33131518893765,22.1961929994909,4.54882038628216,6.37672049136609,33.0618933971978,30.5897341544737,-0.734657134466488
115,-54.4709652759998,7.94771922151858,62.4186844975184,-35.1832018595185,-27.2354826379999,43.3778255755578,24.3369666535973,30.6540499268002,7.21046468068016,4.25662661230524,91.4690167020197,28.8971488019597
116,-74.7328750825227,-60.7755663851026,13.9573086974201,23.4091288438412,-37.3664375412613,29.0757664891998,44.1942242809794,6.48325024253188,19.1562030956006,37.0907148849481,184.951755954743,30.3426317516582
117,-209.356974478322,13.9700369316124,223.327011409934,-118.648524170773,-104.678487239161,83.766188671044,-55.7946340678462,-59.3957344170988,-78.9909364957814,-63.7451136134317,-224.252261265504,-66.462613425073
118,37.1379183059935,81.2964335106094,44.1585152046159,-62.7274743576127,18.5689591529967,33.3928474112766,22.6271796179373,-13.5681313886507,-20.1395951928646,-23.2749740343644,-108.94185133118,-60.1283627915836
119,78.1973684637669,86.5992262232403,8.40185775947339,-47.5005419913568,39.0986842318835,40.7943022068023,73.1867466541312,-52.9777049221188,-113.997064217306,-150.031111322688,-193.67999452168,-115.67681377489
120,144.256949514143,-3.07305404816134,-147.330003562305,75.201528805233,72.1284747570717,-70.7575862975131,5.81483096727857,75.7350778790152,-10.0809306916058,-71.8505629015233,-107.269129432983,24.0066657998991
121,-119.931870292665,5.94388897621548,125.875759268881,-65.9098241225481,-59.9659351463326,37.3711604997796,-51.1334382693216,-87.0141344978292,-251.288486193881,-356.612281534796,-347.455271089462,-231.716226300015
122,-278.275500976486,72.0458380890573,350.321339065544,-211.1835885773,-139.137750488243,190.639020256178,30.9567014468133,-114.992809265954,-409.462725992026,-615.858785301358,-563.072688191559,-332.313493949554
123,-559.880273628656,194.943249596921,754.823523225577,-474.883386411249,-279.940136814328,355.513092137661,-43.7973389502538,-436.501191574926,-919.024662655436,-1264.73182419888,-1105.35529586773,-689.867368637969
124,-1082.96911109057,923.430926996191,2006.40003808677,-1464.91548254148,-541.484555545287,1194.80409504024,383.208151993719,-202.602006847479,-2112.13210619893,-3681.66184915436,-3571.74380913924,-2457.19756379801
125,1290.1195102111,-430.456856844169,-1720.57636705527,1075.51661194972,645.05975510555,-973.801245132071,-227.026123208874,578.322602955126,2236.34271646897,3819.31766857378,3757.11258571939,2630.85086894337
126,-156.634314478677,360.792148415953,517.42646289463,-439.109305655292,-78.3171572393387,382.51756374577,247.60866459691,-664.812237508738,-147.021894695947,568.580269403138,454.068834990059,402.757532659117
127,-361.351035172698,1125.24720299792,1486.59823817062,-1305.92272058427,-180.675517586349,934.770650050412,382.943061930206,-710.335387749018,-597.455343460498,76.7359046893773,95.5809162584948,225.10765601585
128,-551.624426722683,367.023540850282,918.647967572965,-642.835754211623,-275.812213361341,600.066999014194,281.486030455424,-589.984964080401,-506.271091178523,-204.690430930334,-157.932015961981,-30.3497449953288
129,-400.703095266777,410.109689903194,810.812785169971,-610.461237536582,-200.351547633389,540.535918551549,270.259051933126,-649.082259756998,-645.179054570678,-524.872038942702,-452.361654618523,-247.973663187046
130,-298.947997030552,241.965949219796,540.913946250348,-391.439947735072,-149.473998515276,377.295452324396,213.676958398444,-556.085079459469,-583.58550835284,-576.522358224056,-526.917395628855,-268.816615266731
131,127.089731193107,233.4772857091,106.387554515993,-169.932420112546,63.5448655965533,45.1806977060936,-16.0261591038059,193.195304373933,193.04280685748,191.854992591868,224.392001868409,294.778899125041
132,714.255037511202,124.720144942616,-589.534892568587,232.407373812985,357.127518755601,-480.780107665457,-372.025322762327,816.980772304746,940.166965245395,1135.0081517495,1085.67727303536,819.02923319755
133,352.807725932872,-38.7845035181731,-391.592229451045,215.188366484609,176.403862966436,-326.880582833304,-262.168936215563,529.203991563351,574.737508170186,675.368327750863,620.127569930642,433.117054490699
134,145.44301858109,40.1202114289872,-105.322807152103,32.6012978615577,72.7215092905449,-131.79301161191,-158.263216071717,230.928283171169,253.417778346601,298.838013426906,291.469965999678,230.520899132296
135,-2.50323714406522,61.5175185539906,64.0207556980558,-62.7691371260232,-1.25161857203261,-16.523406562855,-97.0675688237658,116.995487864643,106.339899370404,117.772615662169,93.1358032717759,64.7267636373158
136,-36.6153502330831,63.9491062943603,100.564456527443,-82.2567814109018,-18.3076751165415,27.3816656434786,-45.8011252404861,71.0580498108632,107.507572898929,118.84117849625,114.85480947554,106.992491509395
137,63.2632896516693,107.774771388405,44.5114817367362,-76.1431265625708,31.6316448258347,7.89284189851506,-28.7257979397061,100.264443231961,120.943511690024,109.965244706152,96.8911526570735,146.256807553003
138,53.9540051059162,24.4009865074422,-29.553018598474,2.57601604551587,26.9770025529581,-25.3838727930113,-21.2147269875485,61.4182306816772,84.5278997731241,68.2542111890893,82.1662573627692,117.651511302516
139,94.818409034327,97.2831787431769,2.46476970884987,-49.8739742260134,47.4092045171635,-21.4116241919401,-45.2880180927302,5.21415050896678,43.2382581975473,59.0304882572096,48.3201848088504,54.6171297472088
140,-132.722437663568,-23.8448066651986,108.877630998369,-42.5164121665853,-66.3612188317838,39.4199642392147,-30.0377025199397,24.0627538378515,26.0370479625783,-13.6192632642455,-4.39182762918213,32.3646194870921
141,-69.8664307329545,78.4054298411279,148.271860574082,-113.338645207605,-34.9332153664773,45.5868183855314,-57.0982238030197,-8.99039130717995,-12.6794971304851,-30.4617814416698,-7.80442981533403,48.4411705193565
142,-114.485213907521,4.03304341104376,118.518257318564,-61.2756503648041,-57.2426069537603,57.935329156465,-2.64759900563433,11.0639949774753,31.1078377463512,1.92158147849187,7.57026003114556,60.9284030220097
143,-181.1058625209,30.7494676593715,211.855330180272,-121.302398919822,-90.5529312604501,74.2413318465921,-63.3726664870875,-74.1839378795092,-56.9519485960907,-83.4638314086642,-56.0147367667603,-5.50894086784956
144,-91.7222147327502,12.4761891868361,104.198403919586,-58.3372965532112,-45.8611073663751,43.4787390433837,-17.2409258328189,-30.8800312754121,-24.270541472587,16.8587645038791,-15.4257879852752,28.2239210481894
145,-284.340939623467,10.8294079606126,295.17034758408,-152.999877772346,-142.170469811734,128.491870200124,-38.1866071838323,-71.669825997346,-112.285715457835,-98.5372001255512,-100.925629959045,-4.80696789226295
146,-20.6162435822712,104.159756799997,124.776000382269,-114.467878591133,-10.3081217911356,67.5948385582516,10.4136767342345,-26.654499533997,-110.896795830587,-143.573585261978,-144.340335569216,-66.6564663928152
147,197.186006154151,63.1413277694282,-134.044678384723,35.4516753076473,98.5930030770755,-100.707884749279,-67.371091113835,21.5396274342332,-6.63617268133316,-14.541446781696,28.0822831539464,93.4154761896898
148,-40.2007002017367,67.5388139580127,107.739514159749,-87.6391640588811,-20.1003501008684,45.6894181645788,-16.3606778305919,36.0713211933225,-14.6152086613733,-26.2742024804654,-14.6362865521068,52.1615564259764
149,-62.6396698047524,265.201501673152,327.841171477904,-296.521336575528,-31.3198349023762,123.386346162833,-81.0684791522388,-78.120155940422,-170.873607583566,-243.985091531688,-184.580615025378,-54.2055187218002
150,-95.1656855467791,368.158970052656,463.324655599435,-415.741812826045,-47.5828427733895,201.85359973091,-59.6174561376143,-75.2904232647307,-266.628448997124,-393.2804511778,-284.502447623044,-181.613021941298
151,-336.019435588158,765.443506857177,1101.46294244534,-933.453224651256,-168.009717794079,446.032333153527,-209.398276138282,-440.550004744719,-897.081783617767,-1216.56587606869,-987.621464710214,-695.920695126252
152,647.733035014349,785.867259612586,138.134224598237,-462.000742105412,323.866517507175,214.959378566415,291.784532534593,1576.7740313752,1118.08810681366,892.332901604726,1155.6550519853,873.777662904335
153,-586.63638501592,-1045.61255383817,-458.976168822249,752.294361330209,-293.31819250796,-305.729495634787,-152.482822447325,-1050.45273568013,-383.629552249068,30.7900754065354,-268.497630682813,69.9964895458611
154,-411.856350268713,-110.831634922799,301.024715345914,-95.0965402115576,-205.928175134356,117.677699284782,-65.6693167763509,-684.914969057151,-442.01964000867,-365.546804850501,-401.33023940208,-165.829877638888
155,-643.171468956605,97.5886731285391,740.760142085144,-419.174407606842,-321.585734478303,331.236534725892,-78.2870726333612,-603.4817367277,-469.289771783499,-561.141636984082,-508.488371951021,-93.0101430820682
156,-472.991819064272,453.07288994786,926.064709012132,-689.568799479996,-236.495909532136,349.91396593747,-226.236777137192,-777.397508570577,-653.684660710744,-876.534466627727,-783.621971474154,-112.800091185019
157,-912.253930985396,1187.94242392721,2100.19635491261,-1644.06938941991,-456.126965492698,686.507672348601,-727.181010215405,-1054.03150177417,-895.734855149683,-1454.06540279278,-1167.73682886031,263.635621598756
158,-734.677312978595,436.682854510004,1171.3601674886,-804.021510999301,-367.338656489298,540.291401439229,-90.7773646101414,-778.792061060623,-780.446402886891,-1110.41864771078,-982.115860413555,-120.998561766331
159,-253.123636542221,224.478267123906,477.601903666127,-351.040085395017,-126.561818271111,149.923815178016,-177.754273310095,-143.538811103244,-135.328096784923,-315.646351807877,-216.420733857014,159.218029772134
160,627.253905354844,214.355440990631,-412.898464364213,99.2715116867907,313.626952677422,-367.625458967982,-322.352453571751,708.967982579464,840.267503755341,876.031375133683,872.843302494544,832.871921636639
161,578.817578423883,92.1951138986929,-486.62246452519,197.213675313249,289.408789211942,-518.461966283686,-550.301468042181,729.42495451337,854.17645570284,1062.02743030377,981.857308443632,757.085756271212
162,588.58336702918,41.8240696909247,-546.759297338256,252.467613823665,294.29168351459,-382.79038875133,-218.821480164405,519.38062984007,543.024495295219,629.270018735381,561.648148215386,445.111420220518
163,151.049396464135,-41.2634584721127,-192.312854936247,116.78815670418,75.5246982320673,-184.473616000633,-176.634377065019,184.701686722254,250.676577173648,289.938854901462,241.690772595405,197.966526689585
164,244.191728707098,-34.333080596648,-278.524809303746,156.428944950197,122.095864353549,-149.017464884097,-19.5101204644477,189.137883062589,200.340940251214,176.386996975872,136.35055144681,88.4393977072973
165,17.2240968384795,-59.2361671789472,-76.4602640174267,67.8482155981869,8.61204841923973,-52.5588257012416,-28.6573873850566,107.005999743353,140.902313627761,123.219231635926,97.2185623937655,66.8699131211324
166,117.595618260121,-21.733738313701,-139.329356573822,80.5315474437616,58.7978091300606,-100.488412509602,-61.6474684453809,47.9911969694953,68.0061361337685,63.5711131577105,50.2012897799976,40.6315450860707
167,125.636280630348,3.03322167186616,-122.603058958482,59.7849186433079,62.8181403151741,-70.962374718827,-19.321690479172,69.0740570493736,99.2444984020815,73.1891931890502,89.0217863252598,97.9289663202217
168,97.8071484437883,-8.67166647918066,-106.478814922969,57.5752407010748,48.9035742218941,-73.8599496145766,-41.2410843061843,14.5564280538441,44.708074628868,43.5719188374352,44.2611950712957,42.0591358125071
169,-14.261184729558,12.7845944876281,27.045779217186,-19.915186852407,-7.13059236477898,14.2881814584828,1.53058369977958,79.4194828050736,59.1612365469416,45.3251978145162,66.5321216930599,33.0620585215511
170,-22.4659891301144,-38.6817579034037,-16.2157687732893,27.4487633383465,-11.2329945650572,-5.93339556306179,4.34897764716567,36.8163244133245,36.8896803663349,15.7127189800171,32.9521341296176,51.3986031140871
171,114.375563869546,36.7696199947363,-77.6059438748093,20.4181619400365,57.1877819347728,-34.0364780451091,9.53298778459111,-7.86570766327088,-1.39746707772133,-60.0232720677593,-74.3791361702558,-71.6488669029154
172,-0.992103164730906,53.2868303348196,54.2789334995505,-53.782881917185,-0.496051582365453,60.8101345259741,67.3413355523978,-57.7580173291418,-136.253676293802,-227.480819263905,-231.274139977478,-173.828260702875
173,156.39386325726,144.225989094273,-12.1678741629867,-66.0290574656433,78.19693162863,44.4942481114654,101.156370385917,23.5490024494261,-132.507633612238,-308.482019844698,-286.640212685897,-204.515601906328
174,354.067898620871,232.292250378026,-121.775648242845,-55.2583010675901,177.033949310435,-58.4706581222236,4.83433199839823,-9.99900522035091,-235.397334194488,-448.037745733433,-406.500932394678,-279.022783833329
175,207.397620060587,319.709492300375,112.311872239788,-216.010682270081,103.698810030294,118.571611197313,124.831350154839,-122.840320392712,-551.897116717296,-926.693806542732,-879.492267745891,-608.562743268807
176,215.735094694374,793.35750434362,577.622409649246,-685.489956996433,107.867547347187,406.966290844736,236.310172040226,-523.07707556384,-1429.91247129428,-2252.12967446292,-2084.9761525151,-1440.48452116689
177,-540.700388007368,463.725889564326,1004.42627757169,-734.07608356801,-270.350194003684,858.845262678593,713.264247785491,280.39806163104,-1273.69112771144,-2571.06253081484,-2378.08509900641,-1523.90855802396
178,2059.13182909842,340.040103132466,-1719.09172596595,689.525811416743,1029.56591454921,-924.608679087359,-130.125632208765,2206.94587028085,3383.4141866046,4579.34314536144,4580.22982122577,3066.58024183005
179,291.665725740206,-1305.06765001151,-1596.73337575171,1450.90051288161,145.832862870103,-854.489131934273,-112.244888116834,-826.66234609795,231.710436817805,1050.36220818713,768.490616384996,763.704927457085
180,266.988973302699,-313.864595890524,-580.853569193223,447.359082541874,133.49448665135,-237.422352253258,106.008864686707,-446.982624355201,33.6759936074468,369.843681708936,279.773333745864,271.094237922001
181,233.283525764875,-208.160883913041,-441.444409677917,324.802646795479,116.641762882438,-108.423864163834,224.596681350248,-304.263122633731,-45.5507251971526,94.2145045395872,67.6151802807924,122.62844786267
182,112.502945009788,118.791486085805,6.28854107601683,-62.5400135809109,56.2514725048941,39.9983104935288,73.7080799110407,-463.47845257886,-332.187016537638,-301.09289471084,-300.689860280923,-250.587456294378
183,218.54478976327,-8.89905733666183,-227.443847099932,118.171452218297,109.272394881635,36.1637723750487,299.771391850029,-463.976822147389,-417.192814885241,-523.802651669105,-522.98159593112,-385.907981099816
184,922.945922814291,239.644760721596,-683.301162092695,221.82820068555,461.472961407145,-181.173478548279,320.954204996138,-264.32309609446,-316.951368942916,-533.695085402835,-504.634954532104,-371.018124870134
185,1229.65397823066,-180.380272975588,-1410.03425120624,795.207262090915,614.826989115328,-670.705863766282,68.62252367368,549.032569190434,633.958052856725,498.27307638338,498.985555963344,329.704997230053
186,1974.07105539126,-1323.34623191114,-3297.4172873024,2310.38175960677,987.035527695632,-1697.65470549923,-97.8921236960488,1457.00458889569,1691.38282305655,1567.06845993883,1405.93878014636,648.363762947795
187,999.025563690448,-689.728469327677,-1688.75403301812,1189.2412511729,499.512781845224,-877.058307717696,-65.3625824172667,847.786008462842,959.455443600614,987.119604507537,941.828691132805,478.240876871169
188,1007.70249191138,-540.103556860313,-1547.80604877169,1043.954802816,503.851245955689,-683.797393477141,180.211261817409,739.273991176835,786.93091441358,829.738978725925,836.485343717863,496.805550019894
189,233.832755085533,-718.440441338324,-952.273196423856,835.35681888109,116.916377542766,-346.764508279,258.744179865856,538.701059770679,553.566810301374,557.058628768185,757.001864027828,362.937087982882
190,-402.377554459844,-795.060256808851,-392.682702349007,593.871479578929,-201.188777229922,-39.1819958666516,314.318710615704,436.273816299317,471.125547827786,460.948955050707,528.765901963527,281.494317162103
191,-485.654361768027,-754.737600575384,-269.083238807356,511.91041969137,-242.827180884014,-0.898626984990159,267.285984837376,370.984565806668,383.08311496451,406.78211795992,396.88936489654,317.826099651728
192,-55.2571928222715,-635.042615568114,-579.785422745843,607.414019156979,-27.6285964111357,-113.791285814519,352.202851116806,438.894416779895,469.540624198394,446.097161248832,457.707104577143,414.822834721503
193,-61.3260433394789,-540.46176027309,-479.135716933612,509.798738603351,-30.6630216697395,-113.359055631586,252.417605670441,317.995812478162,285.066659629199,286.437492976145,284.80406461455,276.700386415087
194,-51.629167431614,-335.69983423268,-284.070666801066,309.885250516873,-25.814583715807,-80.5311312961281,123.00840420881,163.243094237019,167.114140660886,173.520605529447,140.555731334799,151.855005028613
195,-106.367232447167,-314.991591910583,-208.624359463416,261.807975686999,-53.1836162235836,-31.9890055470402,144.646348369335,177.201369228655,201.75628078346,181.778391184995,179.353744395206,200.426772134443
196,-195.990892547632,-303.530689502807,-107.539796955175,205.535243228991,-97.9954462738158,-8.76453390601381,90.0107291431474,125.770738312249,106.717801445393,118.566488676392,153.026942967943,170.815030611391
197,18.1269471417213,-97.7452434498091,-115.87219059153,106.80871702067,9.06347357086065,-9.16995848746689,97.5322736165966,69.895837637417,59.1688848632857,64.087540067815,81.1032215973643,90.760165880477
198,123.821583882621,137.707741792373,13.886157909752,-75.7969498510627,61.9107919413107,8.33775631076819,2.78935471178437,-63.639980905612,-75.8895183193627,-76.8600188272359,-85.5974590270155,-55.4427822454386
199,5.71323107946318,-172.836925810482,-178.550156889945,175.693541350213,2.85661553973159,-19.8726356543648,138.804885581215,132.669554923714,76.025801835033,12.0808756613389,-8.1877337028161,129.916672893186
200,-1.77028029714302,57.9771972598069,59.7474775569499,-58.8623374083784,-0.885140148571509,28.8200372369305,-2.10740308308897,-62.4749812784797,-186.04061051786,-272.441416165151,-314.738029557013,-113.871332661688
201,-303.74816625273,-58.7738275335914,244.974338719138,-93.1002555927735,-151.874083126365,161.451731038685,77.9291233582319,-97.8833960394157,-314.340065005107,-478.751841937839,-468.687667563631,-136.463869821988
202,-361.186319328808,85.8741511791659,447.060470507974,-266.46731084357,-180.593159664404,236.016715686101,24.9729608642288,-314.124366114122,-666.534035815238,-944.4613230452,-984.113431041428,-297.521527592489
203,-819.34509937133,373.208725585655,1192.55382495698,-782.88127527132,-409.672549685665,566.201315546244,-60.151193864496,-859.817043009225,-1608.32725772987,-2234.93066804204,-2304.88669568254,-1295.03276074537
204,-1100.4295034569,261.540499999056,1361.97000345596,-811.755251727508,-550.214751728451,945.251386556123,528.532769656288,-186.162478303972,-1643.66387735902,-2926.41469139314,-2902.11415282296,-2207.54071114272
205,1547.56661187442,-805.054417940694,-2352.62102981512,1578.83772387791,773.783305937212,-1320.84138227674,-289.061734738361,1488.12416130642,2985.65387695644,4331.45820383236,4292.49863216132,2677.61278999014
206,-414.801760999922,-416.506972216409,-1.70521121648744,209.106091716448,-207.400880499961,7.86683683571246,17.4388848879124,-490.075860188707,121.716248608305,704.673930728457,836.535606027501,178.56343155058
207,-95.5492106724982,-219.616745268768,-124.06753459627,171.842139932519,-47.7746053362491,-22.3471514357553,79.3732317247593,-242.590285254105,41.4600853487657,309.011009436853,374.281981858214,78.9656787969157
208,-93.6002185856164,-112.627005652477,-19.0267870668604,65.8268963596686,-46.8001092928082,74.74539764856,168.51758236398,-304.545964580846,-173.108705979857,-46.7915921761487,-21.398068087289,-151.428059578845
209,-260.711521793606,-110.017905400848,150.693616392758,-20.337855495955,-130.355760896803,214.171355550118,277.649094707477,-384.992076987691,-354.096421692753,-296.13683672399,-318.851096268607,-282.351359264479
210,-508.98900943478,-126.352408719788,382.636600714992,-128.142095997602,-254.49450471739,321.223533420057,259.810466125123,-446.444030071347,-463.047065791974,-472.567192197357,-665.283775918248,-370.10346613101
211,-339.936336478598,32.6587378293434,372.595074307942,-202.626906068642,-169.968168239299,357.016370154028,341.437666000115,-436.598714855462,-536.588970756933,-616.015299047846,-624.277650685273,-370.132826083948
212,207.423679799349,-23.0611749901705,-230.48485478952,126.773014889845,103.711839899675,-41.3208077016411,147.843239386238,247.506626137199,242.726303660849,248.47458956502,282.446907883433,141.61533477991
213,483.854847301497,-323.599415938411,-807.454263239908,565.526839589159,241.927423650749,-427.051815743237,-46.6493682465656,708.470137683658,776.851833066144,1029.9332730987,1163.84914931293,486.504992692313
214,798.345695694497,-445.60764905848,-1243.95334475298,844.780496905728,399.172847847248,-587.845252415517,68.2628399219433,894.131267690438,969.303958262913,1386.95695122427,1269.79372172826,443.400796600489
215,436.052949532144,-930.067065996613,-1366.12001552876,1148.09354076269,218.026474766072,-338.032565515808,690.054884497141,689.339995051778,550.118066505038,1157.24920881003,963.935257504843,-247.279959604392
216,347.823308706837,-347.25077897167,-695.074087678507,521.162433325088,173.911654353418,-194.097049199649,306.879989279209,321.205740027891,287.243253912687,518.514202748137,419.122235073048,-129.206394039564
217,33.1612946365167,-220.015477624997,-253.176772261514,236.596124943256,16.5806473182583,-26.8767851082909,199.423202044932,194.867522423502,164.499387323511,290.719972271352,216.025977150077,-169.621944202092
218,111.76368987171,-70.6012472635307,-182.36493713524,126.483092199386,55.8818449358548,-14.8258823404016,152.713172454437,123.413381385883,93.1446244645833,193.636631135524,113.962296782838,-68.9670819866897
219,217.710673405928,-77.4084613776504,-295.119134783578,186.263798080614,108.855336702964,-110.951133155282,73.2168684730141,128.275156183673,125.583394053464,187.798034059599,138.826748608093,49.7263464669677
220,-14.2328733271106,-178.233078622874,-164.000205295764,171.116641959319,-7.11643666355531,-29.562100634679,104.876004026406,133.224857762232,166.258546752051,200.774996010402,210.986763355971,164.1951436806
221,90.1064342392997,-93.4263931536657,-183.532827392965,138.479610273316,45.0532171196498,-63.9888125094585,55.5552023740483,95.3645260322403,88.5012918546861,130.831202205141,123.202292615098,80.6098741588094
222,42.55133030861,-42.0664829907219,-84.6178132993318,63.3421481450268,21.275665154305,-5.61382813437115,73.3901570305895,88.8764852968767,85.0251962388977,115.380941105649,93.7350390410334,60.9976681292815
223,49.3075569510538,50.9156998897261,1.60814293867224,-26.2619214141992,24.6537784755269,22.2082590142365,42.8083750898007,53.0084457612826,47.8312691752274,45.5292108778486,68.5790547281251,107.447734958263
224,92.0206458197458,-19.0905206079847,-111.11116642773,65.1008435178576,46.0103229098729,-21.447191448448,68.2167835308346,41.3968643850936,41.5809567117672,92.9756617422042,75.570151245468,35.421522980359
225,98.8183281909228,178.38098246531,79.5626542743871,-128.971818369849,49.4091640954614,44.6715529651438,9.78045165590055,-42.8176074539932,-102.468825169565,-131.265921664605,-171.938399815126,-127.531106201693
226,215.148676614711,-21.6109270982934,-236.759603713005,129.185265405649,107.574338307356,-41.5873288042623,153.58494610448,164.112583135695,23.3984489752838,-51.9940983782083,-81.0975958601946,-25.1449889600403
227,417.838749465763,157.086827007351,-260.751922458412,51.8325477255307,208.919374732881,-73.2281204305037,114.295681597405,81.9462774301402,-86.8817791552722,-213.357914586635,-186.865507792608,-78.7528323401752
228,-198.074598712952,129.297590621686,327.372189334638,-228.334889978162,-99.0372993564761,186.609334620025,45.8464799054112,-131.923131990455,-445.343636072549,-642.931468858769,-636.609427542178,-382.781868907071
229,-124.763845091797,313.081537207519,437.845382299316,-375.463459753417,-62.3819225458983,276.874860304541,115.904338309767,-229.769807705725,-788.340490610253,-1200.05315917274,-1152.84395244163,-678.776226802992
230,-935.219929719626,997.846188835446,1933.06611855507,-1465.45615369526,-467.609964859813,1105.39395411278,277.721789670484,-854.522189751656,-2414.46696959725,-3679.37826902142,-3631.83120816471,-2391.06608904111
231,1357.84327083798,305.473815394098,-1052.36945544388,373.447820024893,678.921635418991,-681.700446358061,-311.031437272239,1500.1477735985,1474.17638515971,1659.7049886869,2018.84052241041,1739.85926160938
232,510.448422826371,-1086.06290103344,-1596.51132385981,1341.28711244662,255.224211413185,-775.485681266748,45.5399613263126,-245.522006709674,1255.97129004423,2352.68967992447,2073.90850166268,1239.49989045446
233,-299.730151760089,-412.970459208463,-113.240307448373,263.105383328418,-149.865075880045,91.6963072630978,296.632921974569,-385.211144661278,154.283595468272,532.285410896231,484.234506157146,190.3911084398
234,-374.442449190859,-138.888580912759,235.5538682781,-48.3326436826708,-187.221224595429,211.756571712483,187.959275146865,-404.925457377808,-145.21721841452,31.4905939972576,33.912503995014,-24.8101250324826
235,-629.706472334545,-91.8364351048886,537.870037229656,-223.016801062384,-314.853236167272,339.514825361344,141.159613493033,-588.253271946171,-475.949562707577,-401.030151094127,-390.83437146443,-362.915658241063
236,-607.324498573656,0.0615598458584827,607.386058419514,-303.723809132686,-303.662249286828,427.415914610754,247.445770801994,-616.311766880255,-599.613645320514,-629.545596431039,-652.831847658313,-454.341808957819
237,-219.922683976838,-58.9228605377334,160.999823439105,-51.0384814506858,-109.961341988419,203.794454172816,246.589084906527,-269.846886882939,-267.617781689835,-333.964224136813,-340.418714408273,-120.868559252409
238,326.370058851978,193.136345686495,-133.233713165483,-29.9513162605062,163.185029425989,-72.8249194541068,-12.416125742731,189.508038429463,208.804968015181,184.642891288371,60.9720352920032,236.70970530101
239,1181.32918259711,6.35468124662975,-1174.97450135048,584.309910051923,590.664591298553,-693.587396425983,-212.200291501491,985.491051817737,1155.28260149831,1383.51999820325,1476.33869327175,998.887097055084
240,1079.178717188,119.274851520532,-959.903865667472,420.31450707347,539.589358594002,-536.881657648038,-113.859449628603,725.387788537306,791.985413404642,984.274228229339,969.885212068522,655.158182841278
241,280.76355749419,22.7538168260721,-258.009740668118,117.627961921023,140.381778747095,-173.061579473651,-88.1134182791843,310.63755328814,338.540629089249,465.630112499649,443.168790527368,299.679871884184
242,437.80193169771,168.719865342151,-269.082066355559,50.1811005067043,218.900965848855,-151.177949428705,-33.2738325018505,149.311899836386,158.827566005405,231.017070063111,198.27224616666,87.6270366145209
243,-67.1429954015666,23.3936581852195,90.5366535867861,-56.9651558860028,-33.5714977007833,43.8264726961831,-2.88370819441997,94.1260024764064,83.5103373149184,119.472755971555,93.6800634193181,46.859474956289
244,21.5447360870812,144.013947474558,122.469211387477,-133.241579431018,10.7723680435406,66.7508021889656,11.0323929904541,65.850432162197,63.0763599616348,127.695187007574,104.555058815796,155.410308254958
245,-117.084192418757,235.272346620397,352.356539039154,-293.814442829776,-58.5420962093785,176.048600997966,-0.259337043222217,33.9169566481726,26.4049243622494,84.1010103201389,104.852255168629,247.693014340491
246,35.095066730828,649.629464120052,614.534397389225,-632.081930754639,17.547533365414,286.594848587498,-41.3447002142291,-76.3539124115988,-99.8224827563929,-22.6036851101557,60.384425313391,368.093241370273
247,-389.148873958317,1526.23081711607,1915.37969107439,-1720.80525409523,-194.574436979159,850.026464061268,-215.32676295185,-451.231662036833,-489.001952976643,-280.392498444018,-128.979032499036,571.601978105122
248,-250.010271193954,627.565692772247,877.575963966201,-752.570828369224,-125.005135596977,367.943632007384,-141.688699951433,-218.764931040365,-228.162924418873,-150.630290200042,-53.4620594158941,278.38080637148
249,37.6068290243325,450.147902926558,412.541073902225,-431.344488414392,18.8034145121662,186.032027042702,-40.4770198168214,-89.1197207191024,-98.8328828789936,-55.0592078655091,-30.7984007320429,181.378295128834
250,-202.672110425629,313.677229940051,516.34934036568,-415.013285152866,-101.336055212815,199.718289454924,-116.912761455833,-204.222108248479,-216.48954956198,-234.922773705575,-189.117672359648,-26.4368227125929
251,-53.1123857188563,148.716710749486,201.829096468342,-175.272903608914,-26.5561928594282,125.825937920161,49.822779371979,13.3783595041061,-23.4615863836025,-109.415423972093,-144.304075280101,-2.99595295849667
252,-9.97861882993766,78.0892944432062,88.0679132731439,-83.078603858175,-4.98930941496883,19.3044186057297,-49.4590760616844,73.3654743957658,23.2390827552149,-43.4348326437038,-37.7008026888615,90.8127870240978
253,-89.575022043749,217.286106911605,306.861128955354,-262.07361793348,-44.7875110218745,122.004923577814,-62.8512817997259,-31.4174514365711,-116.889125578128,-219.397017528147,-245.437948396405,-122.22400487298
254,-292.561366288606,316.012736307287,608.574102595893,-462.29341945159,-146.280683144303,273.517250410864,-61.5396017741651,-136.252246758304,-315.737219549665,-503.288927543491,-514.539032396007,-301.073200337089
255,-409.670125645373,857.449080875527,1267.1192065209,-1062.28414369821,-204.835062822686,588.136184870295,-90.8468367803085,-544.378984154435,-1084.6966185354,-1579.57983875607,-1660.02957218011,-1091.42351806127
256,788.507985610546,465.884101141994,-322.623884468552,-71.6301083367207,394.253992805273,1.93152854026948,326.486941549091,1877.26291636844,1835.71710339958,1801.99093952024,1848.87884213038,1345.20490159633
257,-586.139628495509,-974.092392580935,-387.952764085426,681.02257833318,-293.069814247754,-314.869899524094,-241.787034962762,-1273.87906898291,-792.323429971628,-281.359609634689,-76.3229009078943,107.928022621491
258,-353.573549380671,-276.42504006588,77.1485093147908,99.6382653755447,-176.786774690336,39.9633940594787,2.77827880416663,-618.521958163763,-426.304818246199,-285.060191558866,-218.761952507403,-127.883675276065
259,-381.113421779444,-137.614337540702,243.499084238742,-52.9423733490203,-190.556710889722,176.648407049296,109.79772985985,-500.900162796581,-405.551064745244,-371.422596065758,-295.453550757192,-129.31442676083
260,-333.930765024293,19.2263416947276,353.15710671902,-186.191724206874,-166.965382512146,240.644901350542,128.132695982064,-532.034257889622,-562.823247425702,-583.543224846956,-519.967960501961,-311.480331906293
261,-386.984336954037,26.0818537736141,413.066190727651,-219.574022250632,-193.492168477018,322.375766993633,231.685343259614,-596.531784331922,-616.321339049357,-709.44949704846,-660.365192578906,-385.607412798411
262,-396.866154096687,75.9538447951795,472.819998891866,-274.386921843523,-198.433077048343,326.907056497519,180.994114103171,-490.797741818567,-527.689031045665,-666.070306003668,-753.394185145365,-325.830482471448
263,308.240354781901,199.760352922405,-108.480001859496,-45.6401755314544,154.12017739095,-135.94912380966,-163.418245759824,277.214391810129,329.542358032269,308.860234678445,447.528280304623,298.37285300691
264,598.668189162911,-74.8671766696434,-673.535365832554,374.201271251099,299.334094581455,-532.375291124369,-391.215216416183,830.4316311264,1015.62013272562,1196.55166221522,1164.8161843353,832.411512853598
265,331.263362770903,8.58967663152998,-322.673686139373,157.042004753922,165.631681385452,-316.207892152017,-309.74209816466,471.885951984588,533.564640190631,634.083210021284,597.576473673714,365.468456732796
266,102.702466940708,-21.7111229528759,-124.413589893584,73.0623564232299,51.3512334703539,-140.426214171099,-156.438838448615,256.285672788066,261.567561896712,282.296303374182,294.243968566738,204.022503603719
267,-37.7240338950432,20.6978322989839,58.4218661940272,-39.5598492465056,-18.8620169475216,-32.0664816802883,-122.554829554604,61.4920366277007,81.5967541380519,130.058019170418,96.2225247207432,-19.7666937816975
268,-25.7173434335809,-31.3767895248407,-5.65944609125972,18.5181178080502,-12.8586717167905,-30.9221254755986,-56.1848048599374,98.4903919155551,126.625060864221,134.697736172513,115.89310284676,80.2631258865299
269,75.7536531452538,-52.6833466665203,-128.436999811774,90.5601732391472,37.8768265726269,-64.6614214138049,-0.885843015835746,153.481187584047,192.756821360947,154.317201778432,150.350195307983,228.969557355274
270,-50.580375959385,62.3366755562743,112.917051515659,-87.6268635359668,-25.2901879796925,-11.9333084883974,-136.783668492454,53.381664475887,75.3984971835423,-2.804259375774,35.7470884533302,152.296059942187
271,-89.5508845775262,70.2119264928242,159.76281107035,-114.987368781587,-44.7754422887631,-16.8390033678279,-193.440817806006,24.3430713953032,91.0818029951545,-50.9653435886777,-23.4727112230356,156.824725201247
272,-126.293819328671,206.87706843858,333.170887767251,-270.023978102915,-63.1469096643355,-23.0913774789734,-379.353642725198,-77.2546378786477,24.4558576640745,-227.987862553615,-112.447672399279,251.428486813108
273,-2.79935431114154,456.021786356121,458.821140667262,-457.421463511691,-1.39967715557077,-177.042681895222,-812.906504457706,-109.662381314085,95.2500588731698,-501.780435400643,-328.201773878811,511.750271930064
274,-84.9258421336076,169.582716499122,254.50855863273,-212.045637565926,-42.4629210668038,-46.89829160683,-348.305141846389,-103.988723375467,-52.6092120596779,-371.657863130727,-313.62319143847,93.3640851878454
275,-34.8547720629149,43.6126502721204,78.4674223350353,-61.0400363035778,-17.4273860314574,-52.1388780183578,-182.745178371751,-24.4468497508759,-74.1167545487899,-327.390077101307,-289.392646020687,-29.6583086226392
276,-30.0782752939535,178.566108964855,208.644384258809,-193.605246611832,-15.0391376469768,37.9842584972614,-132.675867264286,-44.1050045356898,-218.357919564378,-493.416523966646,-440.09522196564,-154.371967345818
277,-371.500745531436,98.3359058766177,469.836651408054,-284.086278642336,-185.750372765718,206.16491894231,-57.5068135234342,-119.334658994727,-454.291064611677,-776.183913863844,-727.100473322145,-436.540596254153
278,-218.37544273486,374.893211936763,593.268654671623,-484.080933304193,-109.18772136743,295.055535490788,-3.15758369004766,-280.720231238208,-834.682397162026,-1329.93141979985,-1256.93010905337,-779.973031170412
279,-1086.42462117082,1050.23367338769,2136.65829455851,-1593.4459839731,-543.21231058541,1147.36969034199,158.081086125475,-975.338293166737,-2541.47148129455,-3864.66549011519,-3824.3158764794,-2557.00002925559
280,969.142711151294,150.10143754781,-819.041273603484,334.469918027837,484.571355575647,-590.068618020173,-361.095962436862,1477.83076200215,1366.64066445789,1468.14225162898,1908.15600616958,1707.29290568218
281,482.207640460872,-1162.78540047175,-1644.99304093262,1403.88922070219,241.103820230436,-826.988164157826,-8.9832873830303,-173.604203974448,1354.19849784896,2510.03317544438,2193.95218980616,1333.30032946007
282,-279.42317817521,-341.670117800052,-62.2469396248425,201.958528712447,-139.711589087605,78.5458947408822,219.338729106607,-472.838215733899,90.8186378330015,468.295837344934,413.307034204264,170.543704981908
283,-224.550942191669,-259.214964671609,-34.6640224799407,146.939493575775,-112.275471095834,90.3493662702452,215.362755020431,-349.015840407681,-69.4106899608003,49.4698052759813,61.4663089401205,15.4382863484198
284,-362.952612893524,-188.394805783195,174.557807110328,6.91849933643357,-181.476306446762,195.274397903555,215.990988696781,-461.104257810997,-332.709363742624,-299.469744145184,-367.267504833612,-254.647875086931
285,-452.709836494374,-102.32163425264,350.388202241734,-124.033283994547,-226.354918247187,324.29726103467,298.206319827606,-524.922455108658,-498.476109309711,-583.330899412991,-742.807365755533,-351.333273072662
286,-373.307171176352,-82.5005858116283,290.806585364724,-104.152999776548,-186.653585588176,239.087548069007,187.368510773291,-254.990492435863,-272.750694515672,-399.797806704183,-355.532768058739,-210.733917768835
287,430.004961739518,-67.1353687972182,-497.140330536736,282.137849666977,215.002480869759,-353.675168474429,-210.210006412121,635.477442561647,767.234222157022,804.708484164175,1012.75772728074,626.941849831401
288,718.318548624506,-41.4067402972555,-759.725288921762,400.566014609509,359.159274312253,-579.670379999624,-399.615471077486,752.33861000268,882.432763883218,1036.03540085718,1062.51907657303,660.338659295674
289,432.1027652455,-30.0673871207,-462.1701523662,246.11876974345,216.05138262275,-336.471259578313,-210.772366790427,447.804625253891,480.210567607062,517.513667787346,593.090713342332,365.661137895332
290,197.775481097675,-65.4452667338123,-263.220747831487,164.33300728265,98.8877405488374,-193.200204754056,-123.179661676625,200.862628478127,235.694406621188,256.615262737229,273.816066062406,134.348919484548
291,2.77773450377526,24.4525868929809,21.6748523892056,-23.0637196410933,1.38886725188763,-47.7657262069135,-117.206304803033,57.6575159483489,76.4816320339996,0.436085145599066,18.8463769533874,-138.001912120843
292,-25.6755989166145,-192.998950643492,-167.323351726877,180.161151185185,-12.8377994583072,-83.8412429291346,-0.359134131392011,147.570852831358,173.333855428221,92.5035185412637,110.533256088564,64.0784646890602
293,-110.830162546113,-217.195149159909,-106.364986613796,161.780067886852,-55.4150812730566,-61.4129217282156,-16.4608568426354,115.097887645584,157.807266384953,77.9497245204262,114.642963928537,117.141963687487
294,-52.4492841266651,-177.222764820918,-124.773480694253,150.998122757586,-26.2246420633326,-46.9571736431438,30.8591334079654,134.00746717436,151.734466229833,55.7562774310717,119.337999894805,124.222340266379
295,30.1497661117137,-104.633653861918,-134.783419973632,119.708536917775,15.0748830558568,-51.9241682137353,30.9350835461616,109.181531385182,152.868122788992,63.3356146767492,125.95643903722,52.5817691476072
296,-72.0491274557426,-219.795826488698,-147.746699032955,183.771262760827,-36.0245637278713,-49.5481954590609,48.6503081148336,110.727957383298,97.7823763063939,-8.31279893422391,43.9696626294006,47.8621535061743
297,52.4736707295492,-280.837109006417,-333.310779735966,307.073944371191,26.2368353647746,-140.581984678503,52.1468103789603,81.868824182866,109.286839853039,26.0764373690644,-14.8520705698199,-74.3881526618848
298,-256.899759256543,-416.603475784703,-159.70371652816,288.153596156431,-128.449879628271,-77.7315553096926,4.2406059087748,11.8843182691011,8.23588360877307,-94.5023414558875,-85.504169667616,-278.871582619834
299,125.700676879964,-845.809897359178,-971.510574239142,908.66023579916,62.8503384399819,-305.905778180451,359.699017878239,386.300610792499,348.580399265855,200.270527532836,130.723121108997,-203.974520057582
300,598.90195651291,-1652.18754543477,-2251.08950194768,1951.63852369123,299.450978256455,-917.550707677852,415.988086591977,615.260543597395,564.65690688258,436.071940189235,243.131525242741,-603.112776810479
301,132.012553699516,-614.203369942334,-746.21592364185,680.209646792092,66.006276849758,-250.201255473855,245.81341269414,293.789377655711,174.283016060485,19.9612478336255,-15.5436704286524,-314.99082626604
302,107.993369999394,-64.3270137872032,-172.320383786598,118.3236987869,53.9966849996972,-25.1411552254538,122.03807333569,52.98397099714,-141.614252211016,-342.201996520698,-384.776966045511,-438.211277948167
303,-237.44833204735,482.03774878104,719.48608082839,-600.761914804715,-118.724166023675,382.356264150091,45.2264474717912,-314.777548520142,-816.383833684453,-1287.29410153646,-1307.15484891672,-955.286919735315
304,765.831674632198,376.828439628941,-389.003235003257,6.08739768715805,382.915837316099,34.6159277211898,458.235090445637,1837.62440486027,1591.51196152641,1467.00483218888,1575.34793898725,1004.3426382152
305,-539.543450230971,-1182.59153418753,-643.048083956556,912.819809072042,-269.771725115486,-398.538031521292,-154.027979086029,-1267.52698229277,-758.411021473288,-313.06897396405,-153.833721060558,-39.4689123184144
306,-502.783626875633,-508.564592960479,-5.78096608484611,257.172779522662,-251.391813437816,59.8460347047036,125.473035494253,-618.504699691695,-464.912648429479,-390.291087933528,-262.881200312369,-198.032622422705
307,-444.983507394347,-229.917638915792,215.065868478555,7.4258852186183,-222.491753697174,179.666130464167,144.266392449778,-560.311426347705,-515.337189070482,-523.851892066861,-465.337443691273,-370.222721195667
308,-473.241344460154,-143.028743854583,330.212600605571,-93.5919283754936,-236.620672230077,272.932310474909,215.652020344247,-614.984078773298,-608.352634548828,-671.155768419914,-650.952340939278,-490.907526921071
309,-310.139902981281,-54.6023875475266,255.537515433755,-100.467563943114,-155.069951490641,290.677803390452,325.81809134715,-525.521678538745,-573.394898949163,-680.32257134505,-635.126055732195,-367.841412010995
310,-22.3377644106349,8.52832155247734,30.8660859631123,-19.6972037577948,-11.1688822053175,93.5070411424897,156.147996321867,-164.598091113355,-217.737610783657,-295.345415923517,-389.406755731508,-136.836768212384
311,723.97140951874,12.6208447834333,-711.350564735306,349.364859975937,361.98570475937,-487.62775040571,-263.904936076113,750.153447171584,857.173991858989,999.846859787391,1130.08672020904,747.567843911318
312,454.842325121571,-156.231017496606,-611.073342618178,383.652180057392,227.421162560786,-443.49209934127,-275.910856064361,704.36021497995,807.531209280301,954.676642027568,951.666674732555,602.96112683194
313,266.727806175232,-81.9749163700876,-348.70272254532,215.338819457704,133.363903087616,-233.80165165509,-118.900580764861,397.605454120612,415.93049537806,476.954366780984,477.06243995357,293.308564490012
314,76.2738706324599,-142.220362430601,-218.494233063061,180.357297746831,38.1369353162299,-130.218592783084,-41.9429525031074,183.791393643969,196.351494552144,231.352873143575,294.837845130772,153.918024092761
315,86.2361916072055,-76.26983771492,-162.506029322125,119.387933518523,43.1180958036027,-66.8891674063448,28.7276945094358,163.210758856523,194.090198139399,203.541501864299,189.363762361428,75.9691261189168
316,-6.85423781386862,-117.43731028485,-110.583072470981,114.010191377916,-3.42711890693431,-56.6995946209223,-2.81611677086323,95.7319857985248,116.273802641627,114.482254420683,82.6362012454361,31.3545202757687
317,87.0236552468959,-141.021891132479,-228.045546379375,184.533718755927,43.511827623448,-77.7512076574386,72.5431310644974,157.848336851043,174.689399687113,157.020650141467,144.839170071047,113.476534464906
318,74.4449804297442,-100.542207760872,-174.987188190616,137.764697975744,37.2224902148721,-61.6410458579906,51.7050964746348,78.3027842682784,83.1942481598026,85.3217739736439,102.513895999095,53.7269176303244
319,58.5190260963118,-57.6126162477944,-116.131642344106,86.8721292959503,29.2595130481559,-33.0493688568097,50.0329046304868,37.5505882864443,40.4284094733025,19.8363118264925,14.0739111451098,-39.5525170501696
320,-211.531072125122,-138.466655274297,73.0644168508247,32.7011192117361,-105.765536062561,33.3189700891041,-6.4264766726165,7.12109731724183,-3.68528159438756,-19.9671928379629,-2.88653849429689,-29.7716675996667
321,77.1474531862873,-60.2488222665065,-137.396275452794,98.8225488596502,38.5737265931436,-30.016799016946,77.3626774189017,1.23755951743919,-15.3718239256066,-3.93543326681157,6.77570736450081,-52.7077975367238
322,-170.362961280172,3.77322175219842,174.136183032371,-88.9547023922846,-85.1814806400862,164.895946743683,155.655710454994,-4.53495245540523,-100.691222161566,-124.279205576385,-128.107567160249,-160.6237197334
323,46.1721315089976,-32.4582597145491,-78.6303912235467,55.5443254690479,23.0860657544988,-26.5722388175762,25.4859135883942,57.1346860462473,-21.7812431744023,-4.653570786231,2.65367205411063,-25.0918572574856
324,-132.728418031945,-42.9908449746085,89.7375730573362,-23.3733640413639,-66.3642090159724,111.844496294632,133.951419531928,-24.8189840431993,-234.05631200766,-263.770006473958,-246.064784903006,-284.628269130576
325,-171.038502771427,100.822642994146,271.861145765573,-186.34189437986,-85.5192513857135,255.113979261726,238.366812757879,-155.199777798825,-504.289076511975,-469.753112405943,-510.035247167646,-562.283291827758
326,-349.512032878645,229.089545322891,578.601578201536,-403.845561762214,-174.756016439322,566.523814674288,554.44605114704,-457.056508949463,-1113.83962013349,-888.408135960971,-871.991734536903,-1020.3719235224
327,-876.943284003106,741.407528572812,1618.35081257592,-1179.87917057436,-438.471642001553,1038.57491284466,458.79901311341,41.8532589369861,-1784.84354391466,-3067.78684679222,-3110.00916676382,-2195.60880614147
328,839.417475419155,-840.327428993453,-1679.74490441261,1260.03616670303,419.708737709578,-851.383920918604,-23.0229374245991,408.279080852338,1934.28354398966,3440.55568566595,3207.09942969892,2064.21664633799
329,-318.404923948482,-171.460272884688,146.944651063794,12.2578109104472,-159.202461974241,226.904870935201,306.865090806608,-520.507701374391,-46.9393889787864,463.119171442694,469.243541995878,98.3481477732462
330,-261.923878699794,-23.8502742498263,238.073604449968,-107.111665100071,-130.961939349897,213.004539946529,187.93547544309,-395.81361108547,-173.901710462315,60.2600900173042,68.3023104202331,-42.2989678523199
331,-207.4278580382,54.8286187643462,262.256476802546,-158.542547783446,-103.7139290191,261.46677780833,260.677078814114,-360.026675182405,-294.860839091345,-186.943551292222,-212.306055640844,-213.560462718538
332,-359.509588419272,85.3495815922365,444.859170011509,-265.104375801873,-179.754794209636,350.991343314312,257.123516617115,-512.911812555228,-504.542906965199,-504.47196586293,-515.61905134806,-342.005357735663
333,-443.779275161569,33.8472661260084,477.626541287578,-255.736903706793,-221.889637580785,319.830416259872,162.034291232166,-297.221453472856,-324.71843018772,-368.884904304227,-545.182091776101,-219.631467677225
334,590.571062131196,79.7021831837515,-510.868878947445,215.583347881847,295.285531065598,-402.854888724812,-294.840898502179,644.023240744059,806.055597083332,988.390967757987,1088.57474317552,712.539374338638
335,374.464419506452,-10.0881751688885,-384.552594675341,197.320384922115,187.232209753226,-338.814914061591,-293.077233447841,533.674002739177,600.34622276087,800.901152027793,780.054541346613,484.743444522898
336,166.861741798166,29.8733614188991,-136.988380379267,53.5575094801841,83.4308708990832,-154.585145563828,-172.181910748389,217.191794154952,260.052715170309,393.200567572435,362.721824276382,231.181197077966
337,42.3186952796023,64.0193367784009,21.7006414987986,-42.8599891385998,21.1593476398011,-47.7030438591666,-117.106729217132,59.510970093099,89.6224890571198,137.094898635693,62.7038333674071,-27.8024720987705
338,120.578521423716,51.2948519974498,-69.283669426266,8.99440871440811,60.2892607118579,-25.8154017275539,17.6528659711582,119.750675164794,124.808710631533,168.076435355984,108.472099161623,49.362645919105
339,-1.40782893468895,-13.2624724373654,-11.8546435026765,12.558557970021,-0.703914467344475,-3.39865933562936,5.05732483141776,98.3112791008404,94.9886894240237,144.835933921839,109.651542498611,126.661209514757
340,-89.3384975847716,-55.6968429649401,33.6416546198316,11.0275941725542,-44.6692487923858,16.1830410329773,-1.27557255387705,85.4611896162464,92.2609703305179,129.493226841675,81.0782119342749,113.916139229814
341,-86.3722160554526,38.7064838017282,125.078699857181,-81.8925918294544,-43.1861080277263,53.6152435926276,-17.8482126719256,-0.304979333511142,13.0636502902412,33.768925067587,13.3057951665149,8.09810422622513
342,31.8781825592073,17.8628425577845,-14.0153400014228,-1.92375127818082,15.9390912796036,12.3425821822048,38.7005043658324,63.5101128861724,44.8229066614551,75.7588443392793,55.213911644982,88.5295662840708
343,101.164790714771,90.639699351239,-10.5250913635318,-40.0573039938536,50.5823953573854,16.9027282689911,44.330547901514,43.7790795935546,39.545839606023,57.4595766467078,62.9222518914363,101.186515029851
344,-325.713185208038,33.5032730217345,359.216458229773,-196.359865625754,-162.856592604019,153.230274839187,-52.7559085513997,-95.7918206227565,-109.60878376207,-81.1624889569341,-112.495954258219,-84.3249912066667
345,28.4496557652169,261.931121931962,233.481466166745,-247.706294049353,14.2248278826085,104.499209296958,-24.4830475728294,-86.2132568899808,-155.552257764294,-195.336471354045,-211.325993680178,-155.885411551511
346,-21.0148623992686,55.0779749333929,76.0928373326615,-65.5854061330272,-10.5074311996343,-2.87444725958812,-81.8417318518377,71.069820800003,21.1237482528813,14.1144334477184,20.1152563330955,111.493315469326
347,58.8687181156815,269.764584844367,210.895866728685,-240.330225786526,29.4343590578408,75.118219940817,-60.6594268470511,-8.14770735598665,-111.849298412924,-173.307772466645,-136.513126541868,42.6361559889333
348,-26.1501389007076,512.782853097113,538.93299199782,-525.857922547467,-13.0750694503538,188.718924101229,-161.495143795362,-151.893482476723,-347.628935281785,-467.12647628361,-319.832360821876,-0.913054830246892
349,-278.699706823299,929.951438059379,1208.65114488268,-1069.30129147103,-139.34985341165,422.45363357343,-363.743877735817,-509.132377236885,-937.916207354032,-1186.02351340812,-915.319344369178,-324.335351680184
350,-18.0674097353613,1455.8969949065,1473.96440464186,-1464.93069977418,-9.03370486768063,737.706357848116,1.44831105437203,1077.37705298248,102.872899835407,-582.363510699765,-214.493714748748,474.695041669216
351,-766.159273658499,621.429765531181,1387.58903918968,-1004.50940236043,-383.07963682925,368.485230294888,-650.618578599905,-1376.10181194791,-331.014661765466,299.249118529538,106.437475414169,1036.63612281786
352,-704.946806552946,459.971911011642,1164.91871756459,-812.445314288115,-352.473403276473,599.847302233021,34.7758869014531,-923.658772346394,-620.534812007951,-472.811292430204,-473.154384489397,26.581750852507
353,-522.361577307341,330.68946932922,853.051046636561,-591.87025798289,-261.180788653671,468.136807703062,83.2225687695637,-729.453308736157,-592.327039008924,-599.789672327092,-606.842355535792,-182.735230348676
354,-588.258700180621,210.692500278495,798.951200459115,-504.821850368805,-294.12935009031,474.431374417987,149.911548376858,-724.757347706215,-683.830817668953,-719.121968342227,-760.741563700151,-371.635084354733
355,-494.815382614822,225.027949014865,719.843331629687,-472.435640322276,-247.407691307411,432.421489531959,144.99964743423,-689.223788869521,-677.678711407751,-788.242224855134,-971.343213044213,-413.151161190138
356,-57.7596750359548,99.4512722947529,157.210947330708,-128.33110981273,-28.8798375179774,66.3510478670858,-24.5088515965363,42.2615845183965,71.2081263118375,27.2147320855603,22.5100794627241,134.918243798292
357,774.056676695199,153.737679913523,-620.318996781676,233.290658434076,387.0283383476,-539.840353714653,-459.361710647629,757.008105123135,951.105278195143,1132.32355108752,1265.63979192161,809.603690319522
358,414.450234533433,-80.4999027511012,-494.950137284534,287.725020017818,207.225117266717,-390.303102970033,-285.656068655532,624.758497063894,702.228063148703,838.498415934784,831.159777949457,558.215971006309
359,118.87173552196,7.35851942849104,-111.513216093469,52.0773483324888,59.4358677609798,-156.754363524569,-201.99551095567,275.231404253085,304.386195940023,397.026428938943,384.940617171147,240.437952743036
360,81.9916046493076,90.3572893524924,8.3656847031848,-49.3614870278386,40.9958023246538,-74.4760833305895,-157.317851364364,79.6686756065001,142.946499045678,154.40396250699,127.998145561765,77.9234360256532
361,-5.57487200944797,-4.34471444018709,1.23015756926088,1.5572784354631,-2.78743600472399,-50.6323820752598,-102.494921719781,159.294656858747,181.523511969162,183.292432393205,159.301159640388,157.402190376357
362,189.345219796396,37.1203940591954,-152.2248257372,57.5522158390024,94.6726098981978,-95.382837539587,-38.5408493419737,115.629154214499,165.983975842638,189.071928665638,165.495569422721,223.900845092551
363,25.1703031063275,5.8356270575805,-19.334676048747,6.74952449558327,12.5851515531638,-38.4182187506669,-57.5017614525867,60.7236856276324,65.9097352383521,53.3891400198599,54.6621926722279,111.12745140851
364,-133.178867549712,4.19808744665943,137.376954996371,-70.7875212215154,-66.5894337748559,56.1822147307508,-25.0125255348697,32.7688394099538,61.403205529044,57.0984722774468,19.7269767801683,49.8629830953246
365,5.61537527747305,59.5309506980025,53.9155754205294,-56.7232630592659,2.80768763873652,3.72964761615799,-46.4562801882134,23.8087001824869,-0.734626664250527,21.016771260449,6.49829846871117,65.331698407208
366,-77.1634887871646,3.69337883296794,80.8568676201326,-42.2751232265502,-38.5817443935823,24.8526610798754,-31.1515454603817,-1.12247063934228,-11.430821246651,-3.34636167709715,-10.1685638394935,61.7798703323383
367,-100.060307974977,177.843028028017,277.903336002993,-227.873182015505,-50.0301539874883,90.8637856243857,-96.175764754222,-134.918892527305,-192.613070222989,-281.986773269732,-291.960035722773,-190.703328329374
368,-48.6053734910492,149.631486655972,198.236860147021,-173.934173401497,-24.3026867455246,119.201212429511,40.1655647120007,-15.3705182092303,-133.033856449128,-242.761796217814,-280.452821909435,-156.441527257783
369,93.8034147885905,75.9289484597025,-17.874466328888,-29.0272410654072,46.9017073942953,-24.8667042670903,-31.8589422052926,63.0033986923271,-66.8332258591524,-210.315786474769,-231.056482996628,-67.3841454960652
370,-251.870920705221,-10.0439766496115,241.82694405561,-115.891483702999,-125.935460352611,139.774322881325,37.7217017070412,-28.1707374338558,-298.042781177005,-556.350649688515,-616.106357341565,-309.570598678345
371,-338.655426782364,271.357813397855,610.013240180219,-440.685526789037,-169.327713391182,299.754421140346,-10.504397899528,-262.019983237739,-772.342898430799,-1279.49522411883,-1282.51167595121,-779.432366593183
372,-1273.94744673219,566.226037580429,1840.17348431262,-1203.19976094652,-636.973723366096,1080.33306544334,320.492646574068,-740.401259935223,-2373.34928782951,-3894.42391803619,-3933.35416033586,-2561.63382278664
373,1592.15815036861,-711.126411586654,-2303.28456195526,1507.20548677096,796.079075184303,-1390.40465044698,-477.524738938703,1343.24944214534,2818.73321146278,3944.61029616472,3952.62857590986,2890.98466884545
374,-188.423863109296,-336.754970386738,-148.331107277442,242.54303883209,-94.2119315546479,-222.97999531336,-297.628883349278,-603.508191472605,57.5815220070024,396.067214314064,581.298957304391,410.254266657011
375,63.9574594817386,-499.710301859748,-563.667761341486,531.689031600617,31.9787297408693,-531.803801441289,-499.939841541091,-270.092137908388,188.899428480889,-163.167576680576,-55.8026998367597,175.307225366003
376,-101.197588416342,-341.328671452497,-240.131083036155,290.729877244326,-50.5987942081708,-137.356209552783,-34.5813360694111,-265.853116501823,-49.6433155098339,-200.717032381657,-161.134395812385,-18.7858225445193
377,-212.030935697917,-67.2152984852769,144.81563721264,-38.8001693636816,-106.015467848958,118.591866825672,92.3680964387044,-453.214719837636,-378.118726250465,-526.063919899876,-528.931307036311,-279.039581700958
378,-398.769354527799,-38.7675200281178,360.001834499682,-160.617157235782,-199.3846772639,275.612888432016,191.22394236435,-425.465568547457,-445.942719219618,-630.34718299863,-741.115449614245,-305.15547594181
379,502.191200218479,-12.6455176821692,-514.836717900649,263.741117791409,251.09560010924,-389.106682880389,-263.376647860129,511.671141820786,668.157213574143,718.165567394917,689.703348938069,537.773560897344
380,552.886532522825,-203.068135254333,-755.954667777158,479.511401515745,276.443266261412,-560.883585998172,-365.812504219185,759.45201216466,905.259610635416,1077.85910576343,1190.88615127227,645.293804641057
381,243.566925775216,-60.540818873762,-304.107744648978,182.32428176137,121.783462887608,-270.877244598973,-237.646744548969,366.565686612415,441.276499352385,525.961303900519,547.985074775137,243.948492941885
382,167.502995548768,-136.750215965848,-304.253211514616,220.501713740232,83.751497774384,-169.265245094408,-34.2772786742003,303.482691344112,342.427013045385,385.231682318197,364.251218978371,160.305754413971
383,35.144733583606,-100.196565914714,-135.34129949832,117.768932706517,17.572366791803,-70.6638641683946,-5.98642883846907,181.811405484985,231.806942470215,221.729546331569,174.947996273603,50.1931120634508
384,74.1091330770737,-64.0448077013111,-138.153940778385,101.099374239848,37.0545665385368,-108.295194833031,-78.4364488876762,96.7904822338579,133.575745316449,142.164802613894,135.441076795608,76.0740235377348
385,67.0728222701223,-6.44850793749492,-73.5213302076172,39.9849190725561,33.5364111350611,-57.6639456227066,-41.806561037796,85.7878601168526,115.637290996622,103.590380387383,67.7055631643353,-6.6141469677541
386,-182.965792501288,2.73605537588537,185.701847877174,-94.2189516265296,-91.4828962506442,36.015593263884,-113.670661349406,-64.6142784713147,-25.0507736722986,-7.86192442345117,-45.9022748791121,-131.845725261635
387,35.9314101321638,-18.66280145767,-54.5942115898338,36.6285065237519,17.9657050660819,-47.5063360596008,-40.4184605293678,5.97412460981411,41.7069057099236,9.44667711746513,-14.3994015950279,-86.8792482023355
388,-52.820441883463,-96.7182374488084,-43.8977955653454,70.3080165070769,-26.4102209417315,-36.7634555995437,-29.6291156337421,-19.7171784072274,-10.2782214502001,21.3955960615968,14.0473050556415,-3.63557658251057
389,-182.461688218167,-51.55064027354,130.911047944627,-39.6802038355434,-91.2308441090834,95.0461381149968,59.1812282853668,2.40619668701004,-48.5564276570776,-108.257550308729,-111.51726704824,-132.030150986025
390,238.790421746321,-119.454835712138,-358.24525745846,238.850046585299,119.395210873161,-213.046795192977,-67.8483329274938,109.581944637991,184.27295508497,205.662115769804,170.696389171364,167.681327692904
391,188.468182324801,8.02798152341893,-180.440200801382,86.2061096389814,94.2340911624003,-116.531307140452,-52.6224134795219,38.4816407263877,57.3520100538744,36.1303566318278,10.4125056671589,-5.63947604921441
392,38.2076370720406,91.316084304799,53.1084472327584,-72.2122657687787,19.1038185360203,-17.2733440171144,-87.6551352669871,-42.3455268798969,-87.0195641665416,-107.678633962299,-87.2217774120261,-70.8977153172409
393,-7.21111572214977,143.671067159869,150.882182882019,-147.276625020944,-3.60555786107489,-21.426119950403,-193.734422782825,-262.205012024962,-349.52566511895,-376.429676378858,-316.493099901952,-174.748607753105
394,384.3875522947,36.7865661784203,-347.600986116279,155.407209968929,192.19377614735,-7.97585234505297,331.649281426173,1230.55272769384,970.033288487817,605.26705909417,335.47513303649,201.342725443814
395,-738.867920684173,-490.176412638624,248.691508045549,120.742452296537,-369.433960342086,166.125191736386,83.5588754272218,-1055.95049843347,-912.017379309335,-670.988725743101,-528.947458982419,-443.257577008226
396,-321.963378822357,-268.576273309953,53.3871055124046,107.594583898774,-160.981689411179,163.015720407725,272.644335303045,-445.214914323235,-472.695944250524,-416.558991174598,-423.090933968373,-386.20591180982
397,-346.145203216045,-417.019174209404,-70.8739709933589,243.946572601381,-173.072601608023,143.963582939821,358.801136873001,-383.365682771307,-453.293860254372,-430.224448940127,-520.64833888888,-528.698086795636
398,-386.470709375155,-621.996753655674,-235.526044280519,428.761398968097,-193.235354687578,156.69348253188,548.91300934428,-496.992498226841,-598.31068810487,-604.602773104386,-858.079823305019,-860.05936965168
399,55.7166893758117,-1558.63758485744,-1614.35427423325,1586.49592954534,27.8583446879059,-394.659742322614,825.034789588019,198.180243764537,63.0032358999067,256.762612867806,82.7383502971048,-895.286312876698
400,317.714674439652,-609.993667923368,-927.70834236302,768.851005143194,158.857337219826,-389.871575800353,147.965190762315,453.007447660851,526.915336580866,645.900042211313,775.909713931991,24.4198505223485
401,824.327479962212,-442.51009269995,-1266.83757266216,854.673832681056,412.163739981106,-699.03877934238,-131.239986022597,870.330427135411,1028.63098976917,1297.35591683959,1216.09723979329,582.812373360464
402,458.40954293848,-226.098415187548,-684.507958126028,455.303186656788,229.20477146924,-381.54097135755,-78.5739845890716,509.49640776998,557.728970232952,715.541444184959,693.68491662271,325.304168552276
403,187.117835721276,-94.874077776105,-281.991913497381,188.432995636743,93.5589178606381,-175.718008185265,-69.4441028731481,214.037732286215,227.032917465287,302.30549231049,273.394477938842,81.5829127003899
404,176.571102619343,-81.4586150896716,-258.029717709015,169.744166399343,88.2855513096717,-91.1165693756573,75.7965789577005,180.94291910004,199.266286646054,243.622947695238,189.918879566309,42.3790631854004
405,73.5249244056022,-51.7195474977693,-125.244471903372,88.4820097005704,36.7624622028011,-47.0484371417642,31.1475976198431,163.990403828912,176.59660031137,206.380372780786,144.081481838942,96.7919045236258
406,12.8508828395511,-158.157368201332,-171.008251040883,164.582809621107,6.42544141977555,-65.8181056897055,39.3720396614719,126.79450073222,123.053274469927,172.660691457646,152.90211370178,65.1642320397573
407,7.99404877370853,-47.0372956148922,-55.0313443886007,51.0343200017464,3.99702438685426,-23.7646264559735,7.50209147665367,46.241250541756,43.185692284274,77.0296780340598,66.2992251298003,-13.5397326839279
408,5.7740163274093,-54.2838578032156,-60.0578741306249,57.1708659669202,2.88700816370465,-33.2792801127373,-6.50068609484964,-6.48071890137305,6.31102085942166,61.7454651060411,57.8181707786641,-22.949602021848
409,63.7327033842034,-23.4749425477094,-87.2076459319128,55.3412942398111,31.8663516921017,-24.3195379761522,38.5685699796084,10.4324863225231,14.0352708674873,47.3545770524445,26.2922550608163,-66.0284807116163
410,-116.515646141557,-59.5876400181874,56.9280061233694,1.32981694740897,-58.2578230707784,9.16077257215818,-38.6064609790531,-62.4943874082171,-95.8257159654584,-72.2910067695461,-75.1821441121066,-135.320991252695
411,130.822004215671,21.9844512935197,-108.837552922151,43.4265508143158,65.4110021078354,-47.6418866365885,13.5537796489743,35.8963602630841,6.62602317996152,28.4806091802309,23.2083300532784,-8.35292865135943
412,83.9575493471002,48.257384255925,-35.7001650911752,-6.27860958237488,41.9787746735501,-33.8744779636476,-32.0487908361199,-5.13636926764525,-17.2396118424047,-14.8210213400405,9.25928664428628,-34.9432378813949
413,146.887568865905,166.40924220598,19.5216733400757,-92.965457773028,73.4437844329523,-3.53978114386189,-26.6012356277995,-93.3016784635952,-132.039774357836,-162.867554047429,-144.28745664273,-123.105444666411
414,-89.506903246292,246.601189053095,336.108092299387,-291.354640676241,-44.753451623146,92.3523593206542,-151.403373658079,-423.365043921924,-564.784119578665,-614.868751664349,-513.148128300708,-368.25502280799
415,425.50160327377,-165.877312242581,-591.378915516352,378.628113879467,212.750801636885,-120.608622809673,350.161669897006,1055.10023491799,924.937913171457,757.252222445163,528.85800716281,450.58775529784
416,-584.81993388413,-78.0527167990858,506.767217085044,-214.357250142979,-292.409966942065,306.583296779186,106.399376473328,-871.215488214607,-774.739714740504,-571.918486004295,-490.344173163461,-478.912035453822
417,-372.702738778743,-17.996166764925,354.706572013818,-168.355202624446,-186.351369389371,277.88733513632,201.068098258822,-441.751472128712,-453.718269295443,-462.572292882957,-421.3538914201,-351.195178793583
418,-396.786468836712,95.3023000155631,492.088768852275,-293.695534433919,-198.393234418356,372.543729305581,252.998689758886,-449.73760741985,-532.984369897734,-558.011589250992,-552.057519353274,-444.722318552349
419,-557.429791413973,171.583686749994,729.013478163968,-450.298582456981,-278.714895706987,547.862689580164,366.71190099636,-704.076065787042,-817.174979206621,-897.651630498875,-874.756963312487,-601.331923964482
420,-228.332322818301,259.216874938765,487.549197757065,-373.383036347915,-114.16616140915,361.896242914242,236.243288071419,-354.605477111383,-469.403276511631,-445.287170006637,-572.982252638595,-311.61792360818
421,304.77780297507,309.876183842649,5.09838086757827,-157.487282355113,152.388901487535,-46.3517045536591,-97.8017899748964,432.561186450583,503.033143470893,850.77155634357,1002.45139451259,626.48961845165
422,437.377631548457,774.496146116129,337.118514567672,-555.807330341901,218.688815774228,175.522164528506,13.9258144893405,477.980377939572,466.63118639405,1179.01319318769,1109.03072431184,695.62338151634
423,161.715066085959,324.189861069663,162.474794983703,-243.332328026683,80.8575330429796,53.3682480465535,-55.7382988905964,186.666447308991,158.308955129065,487.770925453292,484.990855916985,289.80296061158
424,136.420596230163,279.562121782127,143.141525551964,-211.351823667046,68.2102981150815,77.1742074582716,11.206889364579,129.739807506967,87.0549537823872,265.270025575875,204.091110755631,51.2293103573952
425,-5.87041571354666,102.364055212865,108.234470926412,-105.299263069639,-2.93520785677333,44.9555368550469,-18.3233972163183,51.3509273212145,88.430033194885,191.54029543817,160.749580786132,89.8113526375928
426,-12.3458151649343,66.0290551501457,78.37487031508,-72.2019627326129,-6.17290758246713,6.08616065244939,-66.2025490101812,55.9728408662929,106.481553264839,151.166945915941,118.731672521888,116.778623412076
427,40.6723256334244,123.674133439135,83.0018078057105,-103.337970622423,20.3361628167122,25.9555711594072,-31.0906654868961,37.3965002514448,47.0021688697591,61.6580180972913,81.908382589961,90.8086632504073
428,-62.7154006518404,-15.9802266767938,46.7351739750466,-15.3774736491264,-31.3577003259202,28.9288352274494,11.1224964798521,8.55835809280052,9.52931037106464,24.9168663838017,35.0335981918847,59.8003502728375
429,-193.363088082838,2.48158809203233,195.844676174871,-99.1631321334514,-96.6815440414191,109.431291552138,23.0179069294063,1.24425592550733,10.5213054928772,3.5256777739458,2.47376934684677,81.2854355603249
430,-88.7927777530576,46.6152894281036,135.408067181161,-91.0116783046324,-44.3963888765288,71.522284219244,7.63650125732681,-16.6069896667209,-36.1230176313902,-38.8104393290912,-27.1852531221302,19.1658767660433
431,154.298779539841,158.589596698335,4.29081715849361,-81.4402069284142,77.1493897699206,19.2817143449146,34.2726115313357,62.3193040261621,-23.4540370410025,-72.9904531059128,-49.5389361978143,-3.61754542392737
432,215.442566222173,137.151202219293,-78.2913640028801,-29.4299191082064,107.721283111086,-61.3870081935388,-44.4826523841976,148.140850097773,59.2774954142701,34.3093038509929,67.5457617418938,120.836081275368
433,89.8563681998994,279.20076004154,189.34439184164,-234.27257594159,44.9281840999497,62.820214297097,-63.7039632474461,55.3750196501907,-85.0723475775658,-184.419596771887,-103.362688152172,8.76744866797571
434,-16.1930632117401,177.668763356419,193.861826568159,-185.765294962289,-8.09653160587004,103.548021391092,13.2342162140254,133.479013678234,-116.562335164025,-295.623041583328,-128.365643280082,57.4983240841957
435,268.200522000916,1313.51249895693,1045.31197695601,-1179.41223795647,134.100261000458,565.554596955368,85.7972169547223,759.670570637454,-298.674516056312,-946.078687158658,-589.200677889363,-244.614255694162
436,-247.130524047504,-833.377816039446,-586.247291991942,709.812554015694,-123.565262023752,-351.159855295147,-116.072418598352,-1097.24716799364,-199.810338345189,431.176603842721,75.7643021652947,76.9275752350204
437,-431.759142537801,-188.239416031416,243.519726506386,-27.640155237485,-215.879571268901,195.235113763282,146.950501020178,-684.29521126954,-430.537481260743,-301.645163733527,-378.507266172746,-319.04893990501
438,-200.2606944257,10.0134654221361,210.274159847836,-110.143812634986,-100.13034721285,186.697611201268,163.1210625547,-562.195446313346,-405.692251506934,-379.679172301497,-397.82263376274,-279.09118586673
439,-572.275409135376,124.462324688079,696.737733823455,-410.600029255767,-286.137704567688,429.022121067628,161.306508311801,-738.090781363521,-732.082600628632,-774.742774517829,-772.017315691959,-498.794820327199
440,-288.607550410948,223.983127635317,512.590678046265,-368.286902840791,-144.303775205474,314.40156269275,116.212447339235,-510.135561509464,-514.43638046142,-618.145499308278,-712.293080941563,-260.297327827601
441,347.284312460785,295.277349853497,-52.0069626072886,-121.635193623104,173.642156230393,-185.066194738362,-318.125426869436,376.20577636246,504.833323282546,551.67353687476,726.263926160038,645.12843356126
442,440.481528292475,296.675045982726,-143.806482309749,-76.4342818364883,220.240764146238,-310.226356787819,-476.646231265889,577.211379415492,700.003924405907,747.063805932343,781.191990505597,774.234518580058
443,143.119635542218,599.189491843404,456.069856301186,-527.629674072295,71.5598177711092,-31.8403323879626,-519.750521077111,160.297901367671,281.992790866543,227.146018532336,299.027509550914,666.855389372149
444,-333.448783720693,1430.38455664277,1763.83334036346,-1597.10894850311,-166.724391860347,414.880216377799,-934.072907607862,-297.015346929285,-144.421382026954,-481.523196786834,-265.263718545235,871.814400291692
445,-184.825526787704,575.94451335777,760.770040145474,-668.357276751622,-92.4127633938522,174.73061137795,-411.308817389574,-25.3414220782274,27.9969818129589,-108.790164089518,-14.3990501410102,420.725099837964
446,56.6789083403373,253.982943204166,197.304034863828,-225.643489033997,28.3394541701687,5.75334788406727,-185.797339095694,63.4273314159258,139.903646840829,46.7766707939354,61.1969201682208,326.835754799168
447,-70.0776665950248,135.052474792646,205.130141387671,-170.091308090158,-35.0388332975124,21.5441496205374,-162.041842146596,0.877221730573979,39.6436356733986,-20.1683104015764,16.9452451115765,180.956105633661
448,-37.349623212604,197.668271458797,235.017894671401,-216.343083065099,-18.674811606302,39.3547483979639,-156.308397875474,-42.3370660551647,-32.3366504695191,-77.2263322216356,-56.0959621677232,2.87177835269631
449,-88.3901952056576,16.4235856301907,104.813780835848,-60.6186832330195,-44.1950976028288,28.1889136804681,-48.4359534749122,14.6603143544087,19.3354927511946,-14.163575321301,12.2969828812018,118.04185868583
450,-135.489237119425,56.1989008919636,191.688138011388,-123.943519451676,-67.7446185597123,61.857312241083,-67.9735135292223,-79.8997559399073,-133.750854126315,-160.823201482056,-145.729440751964,-64.2400011201071
451,-62.0625527002667,37.8421623846325,99.9047150848992,-68.8734387347658,-31.0312763501333,58.4175990771047,16.9304830693102,-27.8367664076715,-104.136372094402,-214.315392870849,-188.138147925014,-75.2166462677446
452,49.9621291782751,34.9889406500174,-14.9731885282577,-10.0078760608799,24.9810645891375,12.049229179683,39.0716468876237,44.8374360926102,-111.500574802798,-258.759691550711,-251.205503093873,-130.788686767962
453,-18.5202022984713,202.143931132343,220.664133430815,-211.404032281579,-9.26010114923565,122.83851713537,25.0129008399258,-77.3198559775627,-280.705456886619,-452.934926991753,-499.023756882714,-289.145617532526
454,-367.625402979706,170.40706099539,538.032463975096,-354.219762485243,-183.812701489853,320.849989974944,103.667515974792,-231.977290300696,-624.410350440395,-986.61362448404,-1018.35993125943,-653.251810989355
455,-986.086613286727,909.978407179392,1896.06502046612,-1403.02171382276,-493.043306643363,1049.24791395813,202.43080745015,-957.986933441711,-2196.68513412331,-3324.50355966067,-3395.77747414289,-2335.2665995885
456,1330.97144222332,-536.217951869336,-1867.18939409266,1201.703672981,665.48572111166,-972.269042672416,-77.348691252177,1651.76286674095,2626.53840976672,3331.81050057682,3274.58478506332,2399.94892883438
457,-438.111205711893,-366.235515169689,71.8756905422038,147.179912313743,-219.055602855947,4.24531088080718,-63.3850687805894,-890.284484818189,-361.02644550143,130.387913307948,322.899473531485,243.695374811966
458,-225.272311418271,-143.648941071251,81.6233703470198,31.0127853621157,-112.636155709135,84.268929391302,86.9144884355841,-449.695331643198,-256.463433695808,-119.061446775772,-54.2198605367682,29.3629285468646
459,-374.461730255538,-90.3269890812344,284.134741174304,-96.9038760465348,-187.230865127769,246.920425498133,209.706109821962,-536.062453096169,-500.174985339378,-503.427562529376,-477.267478891642,-304.588418093516
460,-238.202905160815,37.945925303552,276.148830464367,-157.04737788396,-119.101452580408,234.052988891619,191.957147318871,-400.584563263448,-425.550099228801,-505.992408687265,-612.627706095185,-209.374819902067
461,413.349339446549,6.22000220799373,-407.129337238555,200.454667515281,206.674669723274,-312.894214711078,-218.6590921836,373.776629286157,516.720462536185,558.366875224507,562.746382745582,455.419971908079
462,627.271540810546,-211.288371306882,-838.559912117428,524.924141712155,313.635770405273,-589.831078377593,-341.102244637758,721.828543665612,874.285777824433,998.582881089933,1140.78915239672,647.460117530135
463,317.119747634478,-278.189274905933,-595.30902254041,436.749148723171,158.559873817239,-428.987851259116,-262.666679977821,407.097754176499,523.745133503864,514.292592796031,478.016815777071,162.285864726617
464,278.84819468686,-424.091584497246,-702.939779184106,563.515681840676,139.42409734343,-482.06554635942,-261.191313534734,226.729230185604,344.073395509619,238.320053428065,186.232883442079,-72.4158710509882
465,391.018409428887,-1266.33882247,-1657.35723189888,1461.84802718444,195.509204714443,-893.502744035686,-129.648256172488,543.512943694659,689.360664699251,303.879671909453,234.49348655121,-127.774304057038
466,168.668726742402,-570.655664596771,-739.324391339173,654.990027967972,84.3343633712009,-394.778477061986,-50.2325627847993,291.030117889597,403.33939515345,241.476540073429,178.094387091792,29.8164511928476
467,27.4417149173009,-358.896559153668,-386.338274070969,372.617416612318,13.7208574586505,-246.44227739879,-106.546280726612,112.239514258222,204.628610990827,107.501133224835,48.8035100938056,-104.727325355192
468,158.004985759781,-264.868179907813,-422.873165667594,343.870672787703,79.0024928798905,-195.228969669639,32.4152263283161,194.472339267329,206.500630034872,156.466202830841,121.523663843204,16.7134639975934
469,214.841946434765,-83.1651489111941,-298.007095345959,190.586122128577,107.420973217382,-145.623454246147,6.76018685366415,67.7552589835125,106.755760925628,72.9995056749665,30.8600427367254,-52.0217109631799
470,-125.171684538695,-97.4271332710568,27.7445512676377,34.8412910017096,-62.5858422693473,-6.45036836628157,-40.6452880002008,-35.4720246581703,-24.1659120491177,-65.3975061796318,-93.2482201496125,-155.542898695857
471,11.7729152032448,50.516038675979,38.7431234727342,-44.6295810743566,5.8864576016224,26.2600795384242,13.7770356041143,-11.8416413660252,-88.0923091971808,-120.442193475251,-171.827690320252,-175.130721041885
472,164.468832798979,-65.0178821660056,-229.486714964984,147.252298565495,82.2344163994894,-36.544118882762,156.398477199461,86.092853251806,5.44971523585718,-45.0395389318799,-113.780911068033,-106.641204313477
473,139.586414979718,89.4783282978224,-50.1080866818957,-19.6851208079634,69.793207489859,4.72006281493296,59.5482123117616,45.1768811664251,-53.5412495665935,-169.163866386012,-231.131160378396,-177.41331584843
474,-261.737369487806,115.531093151631,377.268462639437,-246.399777895534,-130.868684743903,206.787185573357,36.3059085072764,-161.251545950231,-374.373513571915,-578.952703984452,-665.013896540962,-539.237168660503
475,-783.219005634594,627.36783971786,1410.58684535245,-1018.97734253516,-391.609502817297,732.965232623327,55.3436198941999,-735.593473292015,-1402.49202975207,-2044.19727357904,-2210.60053566239,-1618.3457410676
476,950.047908854771,117.529755968256,-832.518152886516,357.49419845913,475.023954427386,-288.572761458337,255.372629969841,1928.21964827841,2169.52832009782,2286.77646630956,2151.603182778,1421.80737277307
477,-683.958665730725,-819.492019850439,-135.533354119713,477.512686985076,-341.979332865363,-156.44033060038,-177.347307081047,-1308.33841134035,-929.336647230067,-463.902185796781,-193.418225925712,-106.360636338561
478,-294.146388396795,-211.183727196436,82.9626612003585,64.1105329980389,-147.073194198397,50.5197039789259,18.0767467574932,-629.948006249198,-544.038347935849,-423.672791890418,-314.371244846702,-213.306424040736
479,-351.442584818932,-201.653587749926,149.788997069005,25.9322953404605,-175.721292409466,191.079997577549,232.370998086093,-569.676238447318,-580.738944046012,-538.728911108589,-544.700971141335,-360.294720724252
480,-424.900746979942,-13.2438293906102,411.656917589332,-199.206544099361,-212.450373489971,295.293483044091,178.930048498851,-550.659558495698,-575.626245007647,-640.222803015303,-787.823989382791,-407.676859668634
481,-71.2482131782253,-72.9694974854206,-1.72128430719522,37.3453908963079,-35.6241065891127,-45.3118082616253,-88.9023322160553,123.09291382737,177.320774112457,187.308357624148,230.657547423314,145.904062209121
482,496.116863090062,-222.169816341298,-718.28667943136,470.228247886329,248.058431545031,-517.706611519296,-317.126543607231,661.507816102385,794.797414446984,1047.53179562055,1098.01708124013,499.267527012219
483,123.091212671654,-222.337845599311,-345.429058270965,283.883451935138,61.545606335827,-254.009104862624,-162.589151454282,376.06768249524,407.966439192991,562.430508402858,515.131556435221,65.2804604351963
484,-65.9115200744463,-346.989823940736,-281.07830386629,314.034063903513,-32.9557600372232,-113.481184385231,54.1159350958283,218.00267427298,210.168509982629,362.902260242961,305.34538909153,-131.941100189961
485,-90.5853698538058,-578.898755403254,-488.313385549448,533.606070476351,-45.2926849269029,-98.4822453413226,291.348894866803,250.330035495499,190.070872887425,408.475102878191,279.929599049675,-323.470671275565
486,188.80982480384,-1182.46083144647,-1371.27065625031,1276.86574384839,94.4049124019198,-281.436732227014,808.397191796287,450.582314331294,296.283286586469,767.591465822565,533.681071962477,-651.448971469535
487,-149.694026256358,-556.287796028118,-406.593769771759,481.440782899938,-74.8470131281792,-52.1894425726908,302.214884626377,190.269536958794,114.54123480859,345.100635923227,201.243299175713,-311.609072456442
488,92.1568582451241,-191.452670057827,-283.609528302951,237.531099180389,46.0784291225621,-56.3947829874514,170.819962328048,92.7514480820998,48.2261833680625,161.808818050438,97.9147492284112,-179.407953619846
489,94.1206651912162,-139.902313334002,-234.022978525219,186.962645929611,47.0603325956081,-29.1109739187299,175.801030687759,117.079042800835,65.1864784288614,155.957637296127,106.647854466451,-37.2877873172683
490,-120.503751410361,-85.8518785672613,34.6518728430992,25.6000028620811,-60.2518757051803,55.4289416290078,76.2060104149164,6.71511391138358,-2.69675133980718,61.3411714892407,35.1851609487292,-30.537825993139
491,10.8623519962161,120.328125597262,109.465773601046,-114.896949599154,5.43117599810807,38.6648315689199,-32.1361104632065,-71.0759058099821,-171.01800869358,-180.686721734391,-172.485208259768,-159.59176282308
492,-95.0552282233834,177.227815507339,272.283043730723,-224.755429619031,-47.5276141116917,111.958957786805,-48.3651281571134,-109.801110458955,-241.67345629891,-295.696742029209,-292.552761324067,-209.56803224896
493,4.94915184672254,-20.1881589756617,-25.1373108223843,22.662734899023,2.47457592336127,79.5638337494799,184.264978321344,124.965955010538,-78.1120234097154,-217.641159069573,-257.477928146499,-62.2247422841851
494,-3.01750406959627,204.665785052533,207.683289122129,-206.174537087331,-1.50875203479814,149.660383367927,91.6374776137247,-50.8757897035506,-399.867177967806,-644.165053576692,-625.742154875396,-421.487357686836
495,-392.915868135799,159.468772234182,552.384640369982,-355.926706302082,-196.4579340679,354.04654699157,155.708453613158,-135.066138733177,-775.28491930701,-1249.55407203613,-1199.02088063762,-764.452156196873
496,-1281.75968086887,677.753263585405,1959.51294445428,-1318.63310401984,-640.879840434436,1156.29666159157,353.080378728858,-420.018060587561,-2323.18077296506,-3986.42335542213,-3938.28514500476,-2562.18934863055
497,844.971367679407,-649.956985587684,-1494.92835326709,1072.44266942739,422.485683839704,-861.131335072431,-227.33431687777,-134.643613621588,1626.77484376413,3334.75308906101,3381.90649069091,2282.71734208977
498,53.6209607333885,-276.808117300016,-330.429078033404,303.61859766671,26.8104803666943,-133.235012664815,63.9590527037733,-274.14463954866,263.482773958911,782.285861725979,815.458257339635,524.55315844987
499,-212.612271155827,-44.326575209459,168.285695946368,-61.9795603684547,-106.306135577914,140.117923959984,111.950151973599,-464.162431261656,-230.76253120863,-2.0555265453583,53.2363289123588,31.7865472625595
500,-203.668278595774,48.4865545854632,252.154833181237,-150.32069388335,-101.834139297887,219.816837416789,187.478841652341,-506.969976977769,-399.706716812797,-302.053236683198,-272.124972698271,-148.124326886615
501,-245.462505899846,32.5114355050673,277.973941404914,-155.24268845499,-122.731252949923,218.014202283076,158.054463161238,-276.149963034297,-242.257323276129,-265.742985751044,-389.463533571156,-117.330665464816
502,762.995109096652,28.7701050346241,-734.225004062027,352.727449513702,381.497554548326,-571.708129785116,-409.191255508205,805.920024524497,1037.19949141059,1344.19649712729,1403.3367221199,904.766433218894
503,389.506200122543,46.4505544004951,-343.055645722048,148.302545660776,194.753100061271,-279.302811814517,-215.549977906987,387.545581026587,425.907727784259,596.271472408471,605.258410140241,385.802888749083
504,126.571064539092,121.434601362101,-5.13646317699067,-58.1490690925552,63.2855322695459,-67.4381090914261,-129.739755005862,101.928610436377,117.257538914378,281.100203710649,250.338935855466,173.993139530139
505,37.8617937427516,279.807385115785,241.945591373033,-260.876488244409,18.9308968713758,121.122952907259,0.300314441485114,80.6058251308614,75.0484633524209,211.579029069466,227.903272183721,190.221682656111
506,-224.068789303369,436.64185988508,660.710649188449,-548.676254536764,-112.034394651684,332.850371942425,4.99009469640146,19.131425152829,5.28769164247251,162.617312524536,181.955317509874,346.189090800024
507,-455.849651914113,1215.83475574868,1671.6844076628,-1443.75958170574,-227.924825957057,840.674932916775,9.6654581707524,-325.429160352165,-407.966367712657,-29.5681529146061,74.0680583911878,509.736346775592
508,-126.976509305481,578.97610540118,705.952614706661,-642.46436005392,-63.4882546527406,335.319922721133,-35.3127692643947,-154.654409915903,-178.777948502855,-34.9440675700188,-16.8579351369229,190.851983666372
509,67.1110214520231,446.563546562635,379.452525110612,-413.008035836624,33.5555107260116,162.122106120556,-55.2083128695008,-118.858959330336,-116.277467128441,-10.1119655916679,2.13443947529137,126.282982236008
510,180.914588637535,257.811968313063,76.8973796755272,-167.354673994295,90.4572943187677,36.7245243037115,-3.44833106810427,-34.8140164906994,-75.9063168801745,-41.3261575579151,-31.4032177751435,46.6853069333183
511,-187.406477203545,160.16869111919,347.575168322735,-253.871929720962,-93.7032386017725,129.519096083862,-88.5369761550103,-116.771187137531,-146.900778987645,-125.219908396951,-135.949005026154,-73.6606106251143
512,-30.2453072074113,225.534722194105,255.780029401516,-240.657375797811,-15.1226536037057,94.6114653167814,-66.5570987679537,-114.669963803546,-179.926265150833,-199.822638108217,-186.220984287833,-99.4563636118141
513,82.9413063868724,103.172291781582,20.2309853947099,-61.7016385881461,41.4706531934362,-45.3957190335252,-111.02242346176,-24.00325060018,-46.4871481811454,-60.1072692697509,-54.3474511159273,45.3916231169742
514,47.5250548711379,247.449603437087,199.924548565949,-223.687076001518,23.7625274355689,36.042601897757,-127.839344770435,-200.616078205202,-277.713615988011,-328.083237324552,-343.267142920953,-127.155827990669
515,-261.975669945138,437.40491973639,699.380589681528,-568.392754708959,-130.987834972569,213.904741158153,-271.571107365221,-624.107816949482,-848.39464572295,-1033.47880184717,-1093.0715011868,-631.15441790454
516,518.916168555693,-180.434372086548,-699.350540642241,439.892456364394,259.458084277847,-217.829963907853,263.690612826535,996.850907649205,1037.80593417881,973.876512581639,923.575024024676,753.722367424172
517,-744.104074728235,-102.300964782663,641.803109945572,-269.751072581454,-372.052037364118,361.182063670899,80.5610173962259,-845.466701330489,-695.183795157227,-502.233680109788,-405.561238050608,-283.656823968221
518,-420.254644788194,108.171249835268,528.425894623461,-318.298572229364,-210.127322394097,334.062256609137,139.698618594812,-553.854087900217,-514.644483717265,-555.069508567192,-510.472642511502,-288.282527507867
519,-662.786972094527,93.6375931374778,756.424565232005,-425.031079184741,-331.393486047264,446.197746739463,135.970928246922,-702.158381742701,-764.857465897682,-864.246855664578,-1003.12659208902,-566.857999334812
520,-352.15741158262,47.8042789594574,399.961690542078,-223.882984750767,-176.07870579131,310.844178547621,221.726666553164,-394.807997481009,-458.824993135425,-546.570831446596,-542.473915149699,-234.083385557009
521,577.058204957113,224.257816627357,-352.800388329756,64.2712858511998,288.529102478556,-299.133313472893,-245.46623861603,457.258041991416,559.442997351322,615.415132279877,656.911084090318,494.73639493515
522,494.324060442749,-18.053349035571,-512.37740947832,265.215379256945,247.162030221374,-424.978660397648,-337.579911316977,609.40390507516,748.088548760065,904.399021285029,1076.2837449921,631.36147383118
523,349.800273977541,105.164689019975,-244.635584957565,69.7354479687949,174.90013698877,-243.663585820597,-242.691586683628,299.428202036064,365.359955773311,451.597899452859,470.663494937043,264.763479994
524,67.8286951970358,124.962078766202,57.1333835691657,-91.0477311676837,33.9143475985179,-63.0408611746886,-183.215105918543,133.721684418641,155.666250706634,169.01705885588,183.097838831082,78.0493929375848
525,-109.297865186733,97.6350646432884,206.932929830021,-152.283997236655,-54.6489325933665,-7.31601884292064,-221.564967515863,94.6103713529649,179.285639160198,138.97047338681,155.977665983123,195.687072323128
526,129.549975981246,253.797261623818,124.247285642572,-189.022273633195,64.774987990623,-64.0797790320168,-252.406843706605,71.2566691244592,136.543434398983,26.2898179540914,69.2821595098052,236.382022439134
527,9.41608483851132,361.396605317424,351.980520478913,-356.688562898168,4.70804241925566,-15.241532339539,-382.463585157991,-38.3167678332745,92.7388211129726,-120.434969369717,-60.2394730288449,320.651495373073
528,-143.70783157006,793.141660907069,936.849492477128,-864.995576692099,-71.8539157850298,34.0221115272537,-868.805269422621,-142.643042055178,43.331052047741,-526.034893272927,-329.169512352154,690.616044985064
529,48.9407470126662,169.051478891083,120.110731878417,-144.58110538475,24.4703735063331,-88.3117635460234,-296.734258970464,23.4836084760908,127.571251947117,-80.0694536843725,-31.9276636215082,382.007705469786
530,40.7324515609298,237.464088966203,196.731637405273,-217.097863185738,20.3662257804649,11.989324564343,-172.752988276587,-24.0470342884486,-36.286938943015,-230.910202491141,-194.010590872882,117.792483695787
531,-279.533939796714,19.0285295746303,298.562469371344,-158.795499472987,-139.766969898357,48.3432116641263,-201.876046043091,-191.269363901906,-261.466517271785,-423.611690988734,-402.875409834937,-123.301735313594
532,0.173807552323979,71.289311080272,71.115503527948,-71.20240730411,0.0869037761619893,13.4644208145358,-44.1866618988764,-26.1010443392754,-179.131135240018,-421.241881106902,-414.180206646697,-152.743732467575
533,-96.6565758153197,65.9502452465176,162.606821061837,-114.278533154177,-48.3282879076598,102.492518783729,42.3782165056209,-99.1574670074468,-360.73831512381,-655.53907920699,-696.59601658467,-386.809442234856
534,-412.943627239769,182.158410177708,595.102037417477,-388.630223797593,-206.471813619885,345.615914780046,96.1297921426156,-317.875524495344,-870.450108034018,-1374.79736614991,-1375.90365680657,-882.577632702961
535,-1405.99347538834,637.796896019362,2043.7903714077,-1340.79363371353,-702.996737694172,1210.06465631346,376.338941219213,-943.32750063028,-2596.82722421616,-4114.06000654622,-4178.8040879208,-2799.71669375811
536,1229.40786191794,-517.165463602473,-1746.57332552041,1131.86939456144,614.703930958968,-1099.93766566227,-453.302005804138,421.972747732963,2034.47572304565,3438.18812802305,3502.95320396569,2499.76294562629
537,70.051193545773,-202.744206719919,-272.795400265692,237.769803492806,35.0255967728865,-96.099096951272,80.597206363148,-179.66347891446,356.784230007909,725.696488675514,703.932813241274,519.244592654461
538,-289.343580524211,-267.182482228045,22.1610982961665,122.510691965939,-144.671790262106,95.7402560751035,169.31941385404,-303.369398028003,-101.409367586318,61.4565840182061,-39.0935208111338,182.387980293657
539,-123.534592992791,-12.6664294402599,110.868163552531,-49.1008670561357,-61.7672964963956,215.450615664905,320.033067777279,-502.15181399439,-406.495887420881,-400.767299800372,-338.484812371957,-124.111676366981
540,60.4776252461947,4.4117559507863,-56.0658692954084,25.8270566723111,30.2388126230974,31.0915645291206,118.24899835365,-137.808952525108,-74.1999222345942,-154.937759743661,-34.8353005644805,-27.7382008085492
541,887.676136614341,-128.645081033741,-1016.32121764808,572.483149340911,443.838068307171,-690.546440110782,-364.771662573483,965.237127980541,1169.14373439671,1325.04293682013,1519.89660153184,964.76494565061
542,490.729904757269,-139.818839453401,-630.54874421067,385.183791832036,245.364952378634,-438.192470962272,-245.836197713874,588.354099149022,660.886666358076,783.067367934643,810.993730763998,497.786173403829
543,251.832045385519,-45.2205697858622,-297.052615171381,171.136592478622,125.916022692759,-224.217492121148,-151.382369070914,290.763992689436,311.158406670699,358.525523297063,390.893578882484,173.254703745337
544,53.1117164542534,-155.513855062919,-208.625571517173,182.069713290046,26.5558582271267,-93.5475195215468,21.5305324740793,273.460616532707,289.338824576384,295.644571870049,271.557275988365,138.024524146436
545,241.060297560819,-242.159940377159,-483.220237937978,362.690089157568,120.530148780409,-213.552111172135,56.1160155937074,289.197156566414,329.152246166266,332.205485408333,280.836276221409,178.938182025699
546,282.752970192883,-223.894878754636,-506.647848947519,365.271363851077,141.376485096442,-234.592821641285,37.4622056649497,215.516802124232,270.368411484751,205.930805097902,171.258714442587,64.9542143115659
547,259.711722221025,-447.074271124719,-706.785993345743,576.930132235231,129.855861110512,-310.159765510093,86.4664623255575,236.59460395004,244.243032184202,173.524302988512,140.806975394793,-41.2695350785302
548,311.670315612933,-638.271683668038,-949.941999280971,794.106841474505,155.835157806467,-413.742384958153,122.457229364664,281.216685627141,305.337306615705,210.471491852464,114.59298682249,-163.259173613902
549,635.746163612889,-1671.64661522626,-2307.39277883915,1989.51969703271,317.873081806445,-999.015656505856,309.361465827439,575.582916509108,636.249587729582,426.867951980259,271.238945909476,-525.796260136932
550,190.242190888851,-680.896756649205,-871.138947538056,776.01785209363,95.1210954444255,-342.955479089647,185.227989358762,223.577068315555,193.528262732528,44.4432578469099,-23.1217279000575,-311.96732323947
551,118.865738835967,-310.053190472979,-428.918929308945,369.486059890962,59.4328694179833,-149.01467249722,130.889584314505,76.8175759844991,-42.3913575705728,-207.54569534889,-253.267105959247,-377.797405988236
552,159.346205040534,-311.026210192492,-470.372415233026,390.699312712759,79.6731025202669,-156.346021490744,157.680372251538,183.57793083498,56.0876594801789,-62.9708807635113,-119.591976091839,-141.704770041957
553,117.735241822275,-36.0837876665751,-153.81902948885,94.9514085777128,58.8676209111377,-16.2416504181385,121.335728652573,-40.5718098883536,-301.88386518017,-527.410659312144,-509.756896084183,-358.266973136742
554,-487.170683271066,-32.650231121268,454.520452149798,-210.935110514265,-243.585341635533,271.31768059955,88.1149090493014,-343.857349945478,-827.769105856917,-1221.8132839875,-1201.88416706028,-783.400137321229
555,-1416.83934469602,697.850844607538,2114.69018930355,-1406.27051695555,-708.419672348008,1228.61934536454,342.548501425518,-640.912209296742,-2432.69090208833,-4003.57131664868,-4027.56464897219,-2752.91565507361
556,1642.35803549742,-704.321659351137,-2346.67969484856,1525.50067709985,821.17901774871,-1246.74359638761,-146.807497926672,1183.53236902354,2689.7845867763,4021.38675038341,3928.6595230147,2746.85809582201
557,-157.084917608965,-179.683213581442,-22.5982959724765,101.140754776959,-78.5424588044827,36.0204482754055,94.6391925232875,-660.687392093789,-150.407565978013,394.786110269982,464.477398228503,207.758903844293
558,-114.186039051765,-3.98332470421656,110.202714347549,-53.1096948216662,-57.0930195258827,118.586013306986,126.969312266422,-494.632374083312,-329.099066273385,-129.979428300657,-110.935865718171,-156.621597705235
559,-281.69797796821,-127.391371458073,154.306606510137,-13.4576175260324,-140.848988984105,222.785980635378,291.265354760618,-486.649489276259,-405.672401645039,-335.726361113116,-473.563016464717,-239.893974554261
560,-260.739015710432,-31.2355000119046,229.503515698527,-99.1340078433113,-130.369507855216,258.195269590431,286.887023482335,-373.131686651446,-391.969198091863,-454.49650641091,-381.138923006971,-288.41593017176
561,746.861197253796,21.3354413133075,-725.525755940489,352.095157313591,373.430598626898,-486.016286025523,-246.506816110557,625.020673891216,810.894047174741,1036.14399618588,1186.46843509197,668.473529783993
562,621.397496211191,-200.503608421131,-821.901104632322,511.202356526726,310.698748105595,-571.146937275603,-320.392769918885,676.839020762915,802.967264932818,1046.66806299934,986.12514959884,507.00100175264
563,409.754337305676,-89.156025837473,-498.910363143149,294.033194490311,204.877168652838,-304.320277543183,-109.730191943217,336.390857643455,355.627390153062,487.508305979719,463.000573701495,203.328750111423
