sep=, 
EKG Messung vom 28.01.2019 16.38.39
gemessen mit dem EKG Dongle der Hochschule Luzern BAT HS18

 
 , Lead1, Lead2, Lead3, aVR, aVL, aVF, V1, V2, V3, V4, V5, V6
0,8.77126283902908,-109.769922928157,-118.541185767186,114.155554347672,4.38563141951454,21.9262981759675,162.393782119121,169.887941048743,158.635011580976,169.356014893012,161.080817826558,158.431676911423
1,1.9234910220548,-210.782582767977,-212.706073790032,211.744328279005,0.961745511027402,-35.0578787876148,142.590316214802,136.616940621025,151.910269699467,128.285355349653,136.141304634395,148.543651406886
2,-8.73273254407104,-208.903667036124,-200.170934492053,204.537300764088,-4.36636627203552,-61.7548181490274,76.6612981939979,72.9325491440832,76.0025196586212,93.7880843673775,95.9546588986705,82.3318201981892
3,2.8676721068623,-12.0849873542611,-14.9526594611234,13.5188234076923,1.43383605343115,90.386218242711,195.725095946545,206.956517625338,193.488731202495,197.166972765495,203.0228741584,215.193080389872
4,11.5774328221451,54.5863010712783,43.0088682491332,-48.7975846602058,5.78871641107253,130.182846720025,217.356825190916,216.866519849485,210.727616484102,211.374277387455,205.705183877173,224.136715878005
5,-8.33448568906169,96.0910247606807,104.425510449742,-100.258267605212,-4.16724284453085,-301.238956063913,-706.903422577569,-734.036061252089,-717.191449751816,-723.603623014991,-708.992532940087,-721.565904974763
6,-1.36444312514504,140.257891266199,141.622334391344,-140.940112828772,-0.682221562572522,-1101.47188097144,-2344.56609633422,-2328.62638762716,-2320.43370733818,-2311.2907114586,-2321.78285207369,-2340.00489288717
7,-12.9701420795172,54.7236918697308,67.6938339492481,-61.2087629094895,-6.48507103975862,-2509.83581071747,-5087.36545538419,-5092.28683017421,-5092.81333792699,-5078.86884907223,-5098.29928448706,-5090.42965589435
8,9.26013341639191,207.585700990632,198.32556757424,-202.955634282436,4.63006670819595,-4690.07225203386,-9578.47007164196,-9582.64578673124,-9564.25976862363,-9579.19379426766,-9587.19164649572,-9589.80983981336
9,-10.4608530667902,311.828865156887,322.289718223677,-317.059291690282,-5.23042653339508,-8809.66830455021,-17941.6263273241,-17955.7481061115,-17929.0500147374,-17915.3904838955,-17956.5977316248,-17958.9968227698
10,7.33224462807993,333.639511106507,326.307266478427,-329.973388792467,3.66612231403997,-21947.4794617852,-44221.2661900489,-44240.2179356585,-44198.3676997135,-44159.7407115109,-44250.5995676914,-44249.081724244
11,-4.15928707036073,281.015412441804,285.174699512165,-283.095055976984,-2.07964353518037,-9395.8154370089,-19076.80557353,-19080.5406330839,-19063.592150855,-19054.0260408418,-19090.6385190752,-19083.6921750065
12,-0.737108544650255,123.860608624964,124.597717169614,-124.229162897289,-0.368554272325127,-5549.50853751175,-11223.6147921931,-11214.9122901573,-11212.6188972152,-11208.6172522327,-11225.6027875231,-11226.3774412656
13,4.34306475010817,92.6928768293292,88.349812079221,-90.5213444542751,2.17153237505408,-3442.40234575573,-6973.15450359069,-6991.68990942772,-6981.69174395275,-6974.52338605613,-6977.09605456379,-6992.53138348501
14,-9.31634484173264,-49.8319394793361,-40.5155946376035,45.1737670584698,-4.65817242086632,-2254.38249375919,-4468.24939288077,-4467.58862505161,-4472.94000898689,-4477.67896586319,-4480.78570912447,-4477.91345704303
15,0.95191095417249,-15.9499785152439,-16.9018894694163,16.4259339923301,0.475955477086245,-1454.09406285314,-2891.28623623686,-2888.75818654994,-2904.30467730912,-2890.63846357702,-2893.20699718539,-2883.08777169226
16,5.44323617656482,-9.9393796454824,-15.3826158220472,12.6609977337648,2.72161808828241,-1005.24735160306,-1995.11208738407,-1977.47821848089,-1974.3051773363,-1978.04341471949,-1995.50695220553,-1981.02887924726
17,9.9897407121025,50.6243777975324,40.6346370854299,-45.6295074414811,4.99487035605125,-959.552326263642,-1959.73928961271,-1967.64838187321,-1974.89390526756,-1959.69229395987,-1971.61416991512,-1968.12616740639
18,-7.89754750853172,-41.6733356421755,-33.7757881336438,37.7245618879097,-3.94877375426586,-1037.76393416751,-2041.75208020138,-2039.19459877018,-2042.55588223264,-2037.44875612881,-2057.17769828645,-2046.2508847556
19,4.50266844560974,27.5057452484034,23.0030768027937,-25.2544110255985,2.25133422280487,-978.85163222118,-1980.70634124515,-1973.10365797573,-1967.10095365427,-1966.70676702412,-1983.80692345847,-1979.79423640651
20,9.17815965344198,160.257292865252,151.07913321181,-155.668213038531,4.58907982672099,-885.316136069305,-1921.71140535042,-1926.13623572694,-1912.34838828983,-1908.42302882977,-1915.74529278543,-1918.23191088415
21,-0.186724633531412,25.6164536914148,25.8031783249462,-25.7098160081805,-0.0933623167657061,-981.570584404457,-1988.94434713386,-1989.51573216481,-1988.6840847148,-1985.69282085198,-1985.1406403124,-1989.34441841574
22,3.5916928757797,-16.9965830195579,-20.5882758953376,18.7924294574477,1.79584643788985,-1017.61831786791,-2014.64835984047,-2016.26499438382,-2002.02868261564,-2014.01932437561,-2004.93286986017,-2021.54355271131
23,-10.8185586110048,-16.6016669505334,-5.78310833952855,11.192387645031,-5.40927930550242,-972.230863154226,-1938.67861796892,-1949.67644465424,-1936.28206506596,-1945.08876811774,-1934.96924426121,-1939.52266478381
24,-3.31489790408523,-105.878247233806,-102.563349329721,104.220798281764,-1.65744895204261,-1078.42414573833,-2054.28494214694,-2045.9373098721,-2044.77649614404,-2047.55876138655,-2056.8362045351,-2038.87360348046
25,12.1428325307206,-34.7642354174168,-46.9070679481374,40.8356516827771,6.07141626536031,-1019.21116186809,-1991.51525578805,-2003.62639625728,-2000.36714994177,-1992.00669608329,-1997.9624048777,-1987.14464491539
26,8.85898916085716,20.9128217720136,12.0538326111564,-16.483327191585,4.42949458042858,-1004.11686569537,-2020.28756400189,-2033.7771899355,-2024.97157888015,-2039.25371966098,-2028.5830558532,-2040.64063037556
27,-1.05400083286804,-33.1050603619369,-32.0510595290689,32.5780599455029,-0.527000416434021,-1039.01314398546,-2045.97522844185,-2040.80689827612,-2033.18919531358,-2038.19930005862,-2038.99099705968,-2040.85472951544
28,-0.969272293179529,96.2541995404172,97.2234718335967,-96.7388356870069,-0.484636146589764,-953.289965723248,-2003.80340328009,-1994.20401554258,-2011.28038229182,-2001.10732356613,-2008.70643806717,-2008.21630365882
29,-9.12179061901406,68.2460423238808,77.3678329428949,-72.8069376333879,-4.56089530950703,-981.19377715532,-2039.75538725354,-2049.069488993,-2040.08469315656,-2036.67798989176,-2042.18526238477,-2043.72552267017
30,2.86529880322632,-0.919800569623476,-3.7850993728498,2.35244997123664,1.43264940161316,-1040.13511601463,-2076.48513265641,-2079.71949304442,-2074.50982051413,-2079.49199468258,-2088.64605289628,-2085.34685734296
31,-7.89041209223797,11.3003205776331,19.1907326698711,-15.2455266237521,-3.94520604611898,-1038.45197237392,-2096.09467741771,-2094.50784026328,-2098.68411821264,-2067.83371620174,-2098.11136525698,-2093.7752938256
32,-8.47632541006897,23.5835230437515,32.0598484538205,-27.821685748786,-4.23816270503448,-1029.17027302994,-2090.40039451371,-2068.8813100798,-2081.56893694084,-2078.5490006342,-2096.35764181399,-2077.76823462942
33,-3.60021037736442,259.209298327973,262.809508705337,-261.009403516655,-1.80010518868221,-857.629646742018,-1978.06880218937,-1984.1785317605,-1977.86212255846,-1988.5225515374,-1977.39172554528,-1995.91338725845
34,-8.80919041417656,24.6088970112032,33.4180874253798,-29.0134922182915,-4.40459520708828,-1028.55028338339,-2090.51865419216,-2088.91132583006,-2095.17604115154,-2085.90628263692,-2092.49571666689,-2093.7107610513
35,-4.02305385211366,-2.54331967848702,1.47973417362664,0.531792752430192,-2.01152692605683,-1079.7342016747,-2160.94813752302,-2157.16591761122,-2165.77109940915,-2157.99822585026,-2149.12619042309,-2153.19549258705
36,12.3892452482833,-75.657056584867,-88.0463018331502,81.8516792090086,6.19462262414163,-1131.4569868228,-2174.86767181245,-2174.15000072698,-2157.72553124477,-2169.02495050465,-2167.77464096126,-2157.21889103286
37,3.09383383771637,218.918132320629,215.824298482912,-217.37121540177,1.54691691885819,-869.004616618287,-1953.83353171949,-1955.00252581073,-1952.89649752277,-1954.33858215678,-1954.51381218809,-1964.26891576132
38,-0.534540605964139,24.7003077131521,25.2348483191163,-24.9675780161342,-0.26727030298207,-992.584783850078,-2010.40441601927,-2021.69451845353,-2023.45282369389,-2012.55695313544,-2017.91963446041,-2016.9103685919
39,7.64380838221405,-29.929391007201,-37.5731993894151,33.7512951983081,3.82190419110702,-1070.04251880942,-2102.51183822943,-2089.74793008919,-2092.2132030155,-2092.24324989005,-2094.15515135092,-2105.68088705812
40,0.0938097978068981,-67.2778232757701,-67.371633073577,67.3247281746735,0.0469048989034491,-1095.78965118503,-2124.20766929648,-2122.52642518209,-2114.92510419185,-2117.46515998509,-2125.74178281179,-2125.99993843827
41,-1.70490725364652,-209.575776026584,-207.870868772938,208.723322399761,-0.852453626823262,-1217.59536737179,-2227.31986597064,-2245.10307179278,-2238.8323446812,-2233.53136124069,-2235.20970684642,-2237.84309430659
42,7.09638014234952,-598.716134406655,-605.812514549005,602.26432447783,3.54819007117476,-1492.07706464059,-2378.34161473217,-2393.12208494527,-2376.90665484359,-2365.39211326226,-2391.41715234425,-2380.10899446459
43,0.541657610010589,-148.180898049992,-148.722555660002,148.451726854997,0.270828805005294,-1165.81731778457,-2182.91207990915,-2174.58950325791,-2190.73930483521,-2199.10271092574,-2179.40486772859,-2186.24049806671
44,5.30307299783453,19.353988938703,14.0509159408684,-16.7024524397857,2.65153649891727,-1013.76784157191,-2041.58659908469,-2052.91858381699,-2048.75745326612,-2047.79491245255,-2045.24300100291,-2044.03258740297
45,-8.48475973290624,30.0813711610972,38.5661308940034,-34.3237510275503,-4.24237986645312,-1007.55313955969,-2053.67241001339,-2040.8374845105,-2050.93581828222,-2049.16253272505,-2048.69712200228,-2051.72783386565
46,3.8297954032023,62.8413477403228,59.0115523371205,-60.9264500387217,1.91489770160115,-989.731318692502,-2038.47418972212,-2049.25736131895,-2034.63784057842,-2043.22062172645,-2045.19935764125,-2044.51183608337
47,-3.60461811299319,238.80121552464,242.405833637633,-240.603524581136,-1.8023090564966,-830.801738472379,-1904.00931058239,-1920.01840036278,-1903.14117056373,-1889.63732053945,-1908.68907966686,-1900.19474942292
48,-1.81657315773191,-172.241770737717,-170.425197579985,171.333484158851,-0.908286578865955,-1174.44081530051,-2178.45643302103,-2177.58703419633,-2182.84451552996,-2173.74959674838,-2192.76923179417,-2175.93784727663
49,-4.46527269802755,-183.860924235225,-179.395651537197,181.628287886211,-2.23263634901377,-1713.37125037446,-3247.34684921172,-3232.79077498184,-3244.24738159057,-3246.95733694098,-3248.1637015781,-3229.0121877717
50,6.16810375079513,60.9341952056857,54.7660914548906,-57.8501433302881,3.08405187539756,-2450.12928763342,-4955.02466672173,-4944.19789274101,-4948.93905636278,-4933.02270750151,-4948.26706671668,-4949.42757695803
51,7.14395965827862,23.4936599183711,16.3497002600925,-19.9216800892318,3.57197982913931,-3966.47419746667,-7949.29809519343,-7945.0308096025,-7935.57380936891,-7931.4464719891,-7946.30297163906,-7963.02740024679
52,-8.22968630251125,55.6436668843089,63.8733531868202,-59.7585100355645,-4.11484315125563,-6384.40024619013,-12832.6738455671,-12834.8872516075,-12805.3657996836,-12816.1476461901,-12829.5160883331,-12839.1258528981
53,4.55456799059175,270.521831166931,265.967263176339,-268.244547171635,2.27728399529587,-10765.9477775563,-21797.8628182889,-21814.9593484566,-21782.275189562,-21773.9401839897,-21809.4570096021,-21813.7720848343
54,-25.0414236889919,709.556086291297,734.597509980289,-722.076798135793,-12.520711844496,-24842.8561864414,-50420.309882863,-50442.5532445236,-50383.8611025218,-50344.3814307972,-50456.1602663876,-50442.8859362655
55,8.37708609190304,245.851187004737,237.474100912834,-241.662643958785,4.18854304595152,-10124.9448395729,-20487.3637800586,-20491.2981590582,-20481.9433366311,-20468.8350336658,-20506.8835413615,-20508.6294947074
56,-2.98976893938379,47.0291550021793,50.0189239415631,-48.5240394718712,-1.4948844696919,-5423.88854243349,-10897.7960088085,-10917.8265561087,-10906.3475816924,-10895.6665776002,-10915.8961498559,-10904.1758171841
57,4.14520612137858,-68.8967943180469,-73.0420004394255,70.9693973787362,2.07260306068929,-2898.66993101817,-5724.29786159692,-5715.94385405627,-5711.88631594254,-5721.60807064828,-5708.74331275208,-5717.5267443757
58,-9.06756630388554,-134.431076992478,-125.363510688592,129.897293840535,-4.53378315194277,-1367.34443272397,-2609.32535475935,-2596.9554850038,-2605.52523438385,-2600.83236039028,-2624.94851832429,-2603.18420774236
59,-3.5057223411859,-6.46376724133734,-2.95804490015144,4.71090607074439,-1.75286117059295,-303.366326378877,-603.774607857602,-601.525657111342,-604.037793887866,-595.734553952323,-612.182057330676,-606.970008045289
60,3.92343889785116,102.102074472961,98.1786355751101,-100.140355024036,1.96171944892558,330.155421807387,562.132208039664,562.408254680922,563.157145916746,573.140573383251,571.716819814814,558.439305895183
61,4.45337221518275,231.745236056799,227.291863841616,-229.518549949207,2.22668610759138,436.754233739062,646.216603636509,633.971895568859,632.593194803863,644.575650833256,629.986557272874,632.180579848966
62,-1.69947689381661,122.591481562995,124.290958456811,-123.441220009903,-0.849738446908304,373.022882407618,621.754806358425,627.191656814975,626.009432025632,618.849935467588,629.221290827467,629.42905718321
63,10.7210174881329,-94.5721580319805,-105.293175520113,99.932666776047,5.36050874406646,210.557743337078,526.40866219427,516.456021161954,513.434021822788,523.351361515059,532.783648765093,514.379507477599
64,-1.08672954628128,-140.919766272476,-139.833036726195,140.376401499336,-0.543364773140638,196.134849182519,532.102735091234,541.41905302956,531.63740655838,536.906513548514,533.355966610485,533.103806406521
65,7.34338926072815,-138.964279375476,-146.307668636204,142.63597400584,3.67169463036407,155.494928468193,457.297525572591,459.124179107253,454.612934578472,449.614142008388,455.767181213305,465.297898285993
66,-3.17395910111372,90.1621381057776,93.3360972068913,-91.7491176563344,-1.58697955055686,341.795744950679,590.255392694467,580.461014234024,577.474539794057,590.332233979832,589.92781362508,586.345859710767
67,-0.243481560086366,-55.1520965732925,-54.9086150132061,55.0303557932493,-0.121740780043183,219.086510138091,493.081635289389,493.650589229073,502.21434843351,506.060862743499,504.550496273441,504.860440442018
68,-1.26645723904949,-18.7040675609605,-17.4376103219111,18.0708389414358,-0.633228619524743,279.893742028231,577.225094378373,583.897959631402,581.944350079168,581.286240322283,588.158368548087,591.872751101677
69,-1.57070633998956,46.1622396248858,47.7329459648754,-46.9475927948806,-0.785353169994778,363.492675307876,679.252404650877,659.472404181666,668.097195629554,651.961328259495,657.505653570755,639.348560334416
70,2.15299357156619,-37.8466186433216,-39.9996122148877,38.9231154291047,1.07649678578309,326.677645087417,693.354902389721,707.568186596618,714.601206227671,687.178515112348,701.970817317022,707.932179821626
71,-6.64566310145892,-136.422624828032,-129.776961726573,133.099793277303,-3.32283155072946,258.552161681277,646.881285089126,636.501126757037,637.502264594601,646.671933294099,644.294218222523,656.335397222632
72,12.0756402054394,88.8347834956658,76.7591432902263,-82.7969633929461,6.03782010271971,425.432828903969,774.106514517713,779.861405668722,778.215680838795,773.367391085136,779.791377118963,771.05730381445
73,-13.9832098099287,-32.9898883292626,-19.0066785193339,25.9982834242983,-6.99160490496433,375.514147455018,770.03497342937,783.807380587183,755.845218726347,758.214292553923,758.989781729237,762.463359922636
74,0.0838525206199847,164.487501076685,164.403648556065,-164.445574816375,0.0419262603099924,528.772222075393,893.140795594722,884.334815980576,897.782380572549,893.913270723511,905.24765661775,899.450571266818
75,2.40930623930763,-197.252627812646,-199.661934051954,198.4572809323,1.20465311965381,222.250358984937,644.162652021827,655.968228534388,652.823538313125,649.376527113549,667.857538587239,654.941419878538
76,5.15289783655317,-130.315734803822,-135.468632640375,132.892183722099,2.57644891827658,309.094418797831,753.657470236038,738.356525154726,745.887202967773,751.200140847766,755.779600401496,755.365909535525
77,-5.26773805398261,-142.59813870673,-137.330400652747,139.964269679738,-2.63386902699131,278.842806101267,695.016012855282,708.669345563976,704.05492475268,697.273380454775,687.105883998593,700.121984915517
78,6.10266620665789,-5.8150810681982,-11.9177472748561,8.86641417152714,3.05133310332894,391.450945215853,794.819637706561,790.793511651602,810.977751265222,801.537153853191,789.954198430874,789.291158771754
79,-1.0927773815929,-84.550094427279,-83.4573170456861,84.0037057364825,-0.546388690796448,347.268596971655,777.994510988996,777.044775421615,775.927952869621,777.957343106857,770.971104078111,778.813210431166
80,-1.74521839895169,-7.79040603409521,-6.04518763514352,6.91779683461937,-0.872609199475846,427.399563112209,860.844313859561,869.618088155898,870.188277648005,864.405816958519,867.307828446472,855.189019801706
81,-2.7739517383161,123.125232005463,125.899183743779,-124.512207874621,-1.38697586915805,558.821437914332,991.743692084885,981.868084266345,990.328531987558,998.629592123703,980.329142624832,999.768969150377
82,-3.09620912506944,54.7759687587095,57.8721778837789,-56.3240733212442,-1.54810456253472,495.512031228413,933.151884573046,923.32256856942,927.010349607328,921.822690880159,923.803137659532,929.645069400402
83,2.50466099954792,183.331789316668,180.82712831712,-182.079458816894,1.25233049977396,608.49237946124,1036.15763060536,1050.5030264738,1043.59763867283,1042.22988048554,1039.91611431169,1044.17382709956
84,1.66198751635966,-103.727169679827,-105.389157196187,104.558163438007,0.830993758179829,372.986075277106,851.361307750398,864.113678742957,856.462872457632,851.545935153496,852.596386572259,862.724926878465
85,3.37486566312145,48.8625773096574,45.4877116465359,-47.1751444780966,1.68743283156073,509.393007273378,973.298302900221,971.322775940906,973.729497354158,967.354245260998,973.766051513521,977.62706361842
86,-9.65893055446213,-104.719734677317,-95.0608041228552,99.8902694000863,-4.82946527723107,395.079811999691,885.220428122237,894.63910698297,859.941778346751,871.78885715481,885.755148673285,877.234875359281
87,-4.29964365588967,3.24996414865018,7.54960780453985,-5.39978597659501,-2.14982182794483,460.25358815318,912.957568501821,904.395045348239,911.41467185432,901.568768459198,893.144993088004,899.399370675412
88,4.58012098859763,115.767263096583,111.187142107985,-113.477202602284,2.29006049429881,562.243064552793,1013.2989869976,1007.93457639843,1010.07503944254,1018.74494400222,1016.70587269971,1015.11495321649
89,-4.81941811073921,169.198201972147,174.017620082886,-171.607911027517,-2.4097090553696,610.669709411086,1047.32179873929,1043.64727969957,1041.36339647201,1037.30242428067,1048.07105606861,1043.47186795424
90,9.6666553686955,283.927743895882,274.261088527186,-279.094416211534,4.83332768434775,726.415580783665,1178.57007304014,1161.03424966143,1182.15421751721,1182.78767248662,1186.54613560339,1180.43748605944
91,-3.44902620295761,94.558627730381,98.0076539333386,-96.2831408318598,-1.72451310147881,580.079357637325,1062.15106134131,1077.60336726237,1071.522912805,1068.59266015768,1064.39901460579,1070.45651041745
92,10.1271552467078,430.866961880587,420.739806633879,-425.803384257233,5.06357762335392,870.72315433374,1320.7065020336,1332.82710309379,1317.05097344887,1333.72957712392,1343.15190772843,1319.04854315345
93,-10.8623551140481,77.1147566340806,87.9771117481287,-82.5459341911046,-5.43117755702406,1317.11279744093,2546.24848313374,2555.69377000089,2544.23257584608,2551.25631902099,2549.79724024222,2549.52491215419
94,-0.0415203596348874,47.2323255618394,47.2738459214743,-47.2530857416568,-0.0207601798174437,2492.11852776876,4936.96320961605,4934.43591896814,4936.76707827297,4941.06904409427,4942.16378446569,4943.50909046148
95,0.0426887840440031,-4.288691915659,-4.331380699703,4.310036307681,0.0213443920220016,4473.57681703799,8951.48501477568,8947.50770433512,8951.60570981659,8951.75118715831,8950.08310523807,8963.16564144046
96,0.68442588718608,-221.998637180281,-222.683063067467,222.340850123874,0.34221294359304,7649.73384822799,15522.1507595234,15536.9570611556,15506.9705481546,15492.6544385125,15523.8158214275,15529.3135677035
97,3.72609507179004,-347.631964889821,-351.358059961611,349.495012425716,1.86304753589502,13676.9700055515,27705.2980710646,27706.7715594379,27680.8369836952,27654.4673770609,27728.9659881569,27713.972179412
98,-3.89209159588791,-798.560414179985,-794.668322584097,796.614368382041,-1.94604579794395,32642.7962700335,66080.260862651,66109.1797704227,66052.6390819435,65996.5932034147,66129.6495566319,66147.5421803387
99,4.14093388200854,-329.281831388595,-333.422765270603,331.352298329599,2.07046694100427,13659.3087537384,27652.0402727473,27654.0017919751,27620.4718174667,27619.9806894993,27668.7503218512,27658.6208048736
100,7.21446241260855,-153.124616766057,-160.339079178666,156.731847972362,3.60723120630428,7689.99792261567,15540.33492441,15539.1529423515,15537.8939486925,15504.7268970607,15531.3114289595,15545.7990620667
101,-5.6530152761552,-146.599968971481,-140.946953695326,143.773461333403,-2.8265076380776,4394.23665930724,8929.4202723098,8938.57167526981,8925.64445079624,8908.94853462372,8925.72203050947,8919.25476855951
102,10.087929156376,-84.5738421729766,-94.6617713293526,89.6178067511646,5.04396457818802,2444.47567299503,4983.61311731942,4978.6786775272,4968.06121927602,4967.31571606654,4989.00064241359,4975.51436992831
103,-2.96312539235805,-42.9040029927855,-39.9408776004275,41.4224402966065,-1.48156269617903,1282.30263920584,2604.5461560121,2600.65272684509,2597.73251791467,2575.18978087796,2616.16666088402,2598.03809624672
104,-2.65153429919155,4.64021110718022,7.29174540637177,-5.965978256776,-1.32576714959578,609.624094052866,1211.95644269936,1203.95566505572,1197.02784044054,1210.75962935525,1204.36352098308,1196.54061293794
105,1.14177786407527,-47.4678894857352,-48.6096673498105,48.0387784177728,0.570888932037633,565.386597067918,1179.38286148565,1173.94351486288,1175.13685607497,1157.49356489934,1173.16364676034,1164.1216616423
106,-4.46038668608526,77.9175174583797,82.377904144465,-80.1477108014224,-2.23019334304263,636.812860247665,1191.24781635086,1196.48657233536,1188.38095165466,1206.24140418231,1198.70726271477,1196.07538867151
107,-0.654807403392624,21.1162250050984,21.771032408491,-21.4436287067947,-0.327403701696312,576.443196784967,1131.11536116144,1144.57579500557,1146.13766929976,1149.63073227339,1145.60632811586,1160.23078431285
108,-0.496417688060319,-19.7079042160767,-19.2114865280164,19.4596953720466,-0.24820884403016,595.558480024862,1210.32844657774,1213.6667278402,1218.78593318214,1222.35227080397,1216.5996239619,1220.72415276975
109,-2.76070295160753,11.241445330088,14.0021482816956,-12.6217968058918,-1.38035147580376,661.304885565463,1308.60762284923,1313.74680059523,1316.27551756502,1325.16332180216,1313.65377292334,1316.25491337472
110,14.0327850287722,87.8591521185008,73.8263670897286,-80.8427596041147,7.0163925143861,725.928442045843,1378.03051700196,1371.72247944731,1379.58401336774,1374.34633550543,1374.01772308286,1369.68325209312
111,11.1002171408618,11.6313555917004,0.531138450838625,-6.08124702126952,5.55010857043089,664.97084707304,1329.41055569524,1328.24140996064,1330.44526801517,1329.95617709938,1348.6581801936,1331.04139685797
112,-5.96422671424807,-119.559568762925,-113.595342048677,116.577455405801,-2.98211335712404,555.869708276194,1225.33475860106,1222.85767286585,1216.2205381754,1219.30528768842,1212.10953990187,1224.83041955027
113,0.925501305493526,-4.74779554302222,-5.67329684851575,5.21054619576898,0.462750652746763,655.88682776835,1317.44695238522,1310.35166192171,1313.20127735494,1306.68017864527,1314.61050212861,1320.25498680817
114,-4.25615123586613,-153.964620166196,-149.70846893033,151.836544548263,-2.12807561793306,555.294796887232,1260.29806270479,1269.12174735771,1263.88656477441,1259.39190325738,1257.86891096632,1253.88310904359
115,6.93340119186905,42.965455431462,36.032054239593,-39.4987548355275,3.46670059593453,670.235292574347,1304.4385309091,1281.01320598726,1286.72086217243,1286.61332149198,1304.45371910653,1283.06464971241
116,-0.188825457793428,44.92506441765,45.1138898754434,-45.0194771465467,-0.0944127288967138,660.362041291519,1275.61019270759,1260.63579679269,1273.33338451191,1266.68955132179,1256.55331362356,1265.53538678517
117,3.91323834986542,7.23594025478815,3.32270190492272,-5.27932107985544,1.95661917493271,621.283287053026,1239.24387220113,1247.45874561803,1231.3943633528,1241.70642848575,1236.41353323715,1241.81990930773
118,-2.76133201323682,75.0063567909529,77.7676888041897,-76.3870227975713,-1.38066600661841,673.297821576751,1268.82795434931,1299.86539780223,1280.21111125071,1277.34274026589,1290.61941067167,1274.23421132428
119,-8.25187428033678,24.2754097607103,32.5272840410471,-28.4013469008787,-4.12593714016839,619.134323945691,1205.74136385033,1206.8745393854,1203.02655154004,1205.88213245984,1195.47856172573,1211.06556496592
120,0.0792985981097445,186.119446126744,186.040147528634,-186.079796827689,0.0396492990548722,763.339603763146,1340.63905999766,1342.99468168308,1333.66996346303,1338.84241827758,1352.11753107893,1345.85126522958
121,-7.9669381872227,80.147437232954,88.1143754201767,-84.1309063265653,-3.98346909361135,688.057766535203,1288.00115765023,1278.13634094427,1283.31844887079,1258.71408400105,1267.32755728645,1265.16244586711
122,0.509067828155821,-68.6749808180321,-69.1840486461879,68.92951473211,0.254533914077911,563.368530742824,1195.92111013184,1183.26772323088,1209.08188429303,1211.68580838034,1196.0936687857,1206.09212164188
123,7.69255176791921,-156.938337224419,-164.630888992338,160.784613108379,3.84627588395961,451.410044382574,1067.45097775749,1089.05518908711,1074.38531733662,1077.70756093389,1079.7948131873,1083.79040138001
124,0.531588631740306,-42.9750544551935,-43.5066430869338,43.2408487710636,0.265794315870153,533.425687910247,1110.35801890743,1122.51943540311,1121.55615059746,1117.66752255464,1121.46654020878,1100.38816383711
125,-6.77420345935388,-148.046676209255,-141.272472749901,144.659574479578,-3.38710172967694,431.848193314014,1004.96885937793,1002.44437830368,997.251982960704,1010.37928817899,1012.61245368083,1000.96872587543
126,8.12542976051918,27.0711833546811,18.9457535941619,-23.0084684744215,4.06271488025959,546.108355686389,1073.27095777862,1058.41862787982,1073.20625213473,1072.73005082647,1066.61154788578,1080.07877173918
127,-8.02887394092977,-129.996640690777,-121.967766749847,125.982203720312,-4.01443697046489,413.076514662622,948.120796075091,942.674421629024,945.39824033028,953.171198848431,941.764766770997,969.20769052871
128,1.39476533228299,-138.100874375872,-139.495639708155,138.798257042014,0.697382666141493,392.649699621659,924.795038951474,941.804162959714,933.839508532721,926.504714617331,930.990609565197,932.922566468216
129,1.65848034157534,79.9483963691455,78.2899160275701,-79.1191561983578,0.829240170787671,549.574637588885,1020.8593591502,1012.90227616802,1015.76056767243,1022.04854992789,1023.1990604536,1026.05625199346
130,1.97000824118732,83.5529143345193,81.582906093332,-82.5679102139256,0.985004120593658,577.686439096899,1073.78997210047,1065.91227275747,1072.86884193172,1077.24867844812,1079.23313967421,1059.38693149996
131,-1.74886689253617,127.256908540177,129.005775432714,-128.131341986445,-0.874433446268085,637.927621805866,1146.84946817902,1121.07509478627,1146.16690301744,1132.85001738905,1151.66386212464,1138.63432417955
132,-4.11415817079251,119.804131799843,123.918289970636,-121.861210885239,-2.05707908539625,655.396647457834,1186.87500494503,1196.87139279456,1198.65092838526,1193.2619628002,1178.8657406288,1197.91532183686
133,-11.4525172253489,81.399864025414,92.8523812507628,-87.1261226380884,-5.72625861267443,653.078519144387,1213.30465703801,1212.28874167451,1202.4856959513,1191.0100518206,1205.10086437059,1192.26512173962
134,-2.6730602341122,-7.68175304849865,-5.00869281438645,6.34522293144255,-1.3365301170561,548.161485520788,1101.33166385596,1122.69183753894,1101.04149135531,1102.44918323209,1099.3675163647,1109.212505342
135,22.4220861967769,-100.74815178159,-123.170237978367,111.959194879979,11.2110430983885,492.276288730049,1107.72281543846,1109.47711172086,1115.91627775173,1097.66395479051,1115.0810882409,1115.17120366622
136,-14.1434185368707,97.4284816017898,111.571900138661,-104.500190870225,-7.07170926843537,652.591807077319,1193.61171401598,1198.51160010212,1179.94568808583,1195.57101559656,1194.9096630961,1187.61144382032
137,1.54793696079287,-23.1142946062319,-24.6622315670247,23.8882630866283,0.773968480396434,874.252793483232,1773.16781853349,1785.7963329718,1761.81324941799,1762.17810050622,1773.61356417535,1780.27442171465
138,13.6342788699258,-16.4051448075043,-30.03942367743,23.2222842424671,6.81713943496288,1394.95393149169,2819.94728666081,2826.63205761075,2820.17645294851,2827.37231585581,2824.49762221437,2827.7400185017
139,-0.908533831418026,-221.135900571593,-220.227366740175,220.681633655884,-0.454266915709013,2155.56528371476,4531.3579341697,4525.53912651446,4513.50216157883,4519.14907616397,4530.45326175273,4523.86471744117
140,-0.461607708159136,-132.940357127867,-132.478749419708,132.709553273788,-0.230803854079568,3693.58336814746,7519.64548571463,7503.77255089625,7505.08774848282,7509.0304138833,7516.35180957615,7510.39948504299
141,-11.6107340541785,-388.777635439619,-377.166901385441,382.97226841253,-5.80536702708923,6246.26324689969,12869.6933951848,12870.7183400903,12852.9160725059,12855.0784709202,12883.0559868218,12879.2078570797
142,-4.3054134643462,-847.928057522018,-843.622644057672,845.775350789845,-2.1527067321731,14626.5187196145,30096.6600832868,30117.4303598611,30085.0786946117,30055.9155414934,30124.4591081836,30111.5660574937
143,4.36565832432825,-498.543862925173,-502.909521249501,500.726692087337,2.18282916216413,5880.66104834819,12264.2316179459,12255.7822679262,12255.603887683,12236.7835974979,12274.4081126749,12273.6972702282
144,-1.01108804476098,-142.112435479881,-141.10134743512,141.606891457501,-0.505544022380491,3272.1145769022,6685.33050123951,6686.40425158112,6694.56249372978,6685.90021172425,6692.31475619366,6709.66912993856
145,2.15067720532534,-53.4979184392141,-55.6485956445395,54.5732570418768,1.07533860266267,1795.40624708692,3646.46108981839,3664.88170034092,3652.39214373622,3654.86596111974,3664.46268750142,3655.53509861286
146,-3.7004406817141,-81.8776542941923,-78.1772136124782,80.0274339533353,-1.85022034085705,829.23520322518,1736.64762006284,1738.37996326332,1733.87826130347,1740.29600016685,1733.18284622184,1737.29671042151
147,-3.49229135341011,-117.536762147822,-114.044470794412,115.790616471117,-1.74614567670505,256.754465658538,627.553402111487,620.372229126719,627.10733506683,613.060636826529,614.918897099269,626.099090130068
148,5.09168777955347,11.6892645504849,6.59757677093148,-9.14342066070822,2.54584388977673,12.1893371433835,17.7810975158354,1.69123511714861,-0.0433091488084756,15.9691413535329,-3.55650571448496,5.3256997843273
149,2.04719747669878,-112.900741900725,-114.947939377424,113.924340639074,1.02359873834939,-89.5997470060975,-64.2515546347713,-82.8956242808199,-71.4948516459554,-67.7703848117962,-71.9372803169535,-86.9532856554724
150,8.2618002864474,47.3423804210324,39.080580134585,-43.2114802778087,4.1309001432237,24.4471124144766,9.81364469436812,20.5269825640135,9.2022956823057,11.4888813204889,9.90182722703321,-0.321590067876969
151,8.53619206530857,184.292968148657,175.756776083348,-180.024872116002,4.26809603265428,128.711418982042,81.6660618807364,98.6008750690671,76.0206114485627,79.9670077501214,86.1526801469445,82.7473232393968
152,-7.24781491872272,38.5182411561545,45.7660560748773,-42.1421486155159,-3.62390745936136,-4.30821250966983,-54.3824810942169,-44.579656533635,-26.133415603661,-57.988368245482,-40.7535392103309,-50.1691607938847
153,-1.24869836331345,57.8327965410717,59.0814949043852,-58.4571457227285,-0.624349181656726,17.6677244922175,-23.7460459199501,-35.9755824420135,-19.2620054665895,-16.9034446993028,-7.73754893918522,-15.2029999663064
154,-4.86183217400685,-125.939032374969,-121.077200200962,123.508116287965,-2.43091608700342,-142.770912570268,-164.464624939574,-152.101850262814,-163.804621381423,-167.386349362961,-151.959476120915,-157.002602286608
155,-6.07776630469016,-167.646292307152,-161.568526002462,164.607409154807,-3.03888315234508,-177.937951657485,-194.307377312507,-185.771033033699,-186.51226884214,-197.615354484326,-189.53238674032,-179.485085703054
156,-1.10594258739729,-46.2538862364891,-45.1479436490918,45.7009149427904,-0.552971293698647,-90.3762832645298,-135.604622879968,-142.320793761086,-143.2397324591,-144.33044448978,-137.393666741729,-144.930463482771
157,-9.13155683263903,-38.860581002984,-29.7290241703449,34.2948025866644,-4.56577841631952,-92.6427340591326,-155.55644394792,-145.198372684332,-163.193451249332,-134.354559257103,-163.883222714328,-154.393172758864
158,12.3264209480549,196.597326158866,184.270905210811,-190.434115684839,6.16321047402744,84.7094328962557,-14.8520394182997,-18.6046333056001,-8.94385722040897,-28.1386462587398,-12.4837819904496,-13.0235970615176
159,-8.22226290139952,79.4871155328874,87.7093784342869,-83.5982469835872,-4.11113145069976,-11.346874887895,-110.403128210077,-115.030652388581,-105.668499543128,-117.897025467508,-108.469486821734,-108.149268924812
160,-1.62219086560071,72.9522462881869,74.5744371537876,-73.7633417209872,-0.811095432800357,11.5521196491172,-51.4701978555531,-72.9765323555912,-66.6456078326155,-46.8926172730571,-64.3861668669852,-67.8264056231419
161,9.03323482710402,-12.2569259551819,-21.290160782286,16.773543368734,4.51661741355201,-81.6013032373012,-141.912445692316,-137.501064915705,-145.103736105171,-128.124056486296,-147.731368596433,-127.536308433628
162,12.6434924484929,45.0550086518342,32.4115162033413,-38.7332624275878,6.32174622424645,-37.5738511998061,-107.559218602953,-102.785988930729,-102.268817548058,-91.0605406214308,-99.4683005972183,-94.3796456610144
163,-0.23444019339513,-152.503583332611,-152.269143139216,152.386363235913,-0.117220096697565,-226.326058309438,-300.38297347966,-287.475422213553,-290.296317401575,-292.921069868375,-308.498652628477,-297.361828905356
164,-3.28370861249277,55.8326289426768,59.1163375551696,-57.4744832489232,-1.64185430624639,-96.3793368534534,-251.875011262076,-260.82422127109,-266.395321903285,-262.457163168496,-257.145489615417,-272.685416202585
165,-1.9179272983456,-66.5144424786849,-64.5965151803393,65.5554788295121,-0.958963649172802,-183.216412804511,-301.836310428684,-303.038836158201,-302.076685245906,-305.302869810665,-305.305735955044,-307.262004951946
166,7.93841069962946,-107.991145671258,-115.929556370887,111.960351021073,3.96920534981473,-273.005527039073,-430.081497707259,-406.61696449091,-425.034024182241,-421.108773208922,-412.307272032718,-416.679474231583
167,-2.46090581829776,-1.46401414347929,0.996891674818471,0.233561234330409,-1.23045290914888,-201.007650375439,-403.012192425696,-399.312447593285,-407.340756258054,-414.141047428129,-383.37544525374,-406.123682002624
168,0.948833731701598,108.618510691333,107.669676959631,-108.144093825482,0.474416865850799,-135.955156768119,-379.579990495869,-391.364770939166,-375.472626394971,-378.160396480642,-385.103287096572,-369.122144666762
169,-7.41680865487433,-121.412627378129,-113.995818723255,117.704223050692,-3.70840432743717,-333.232735401456,-552.469652079657,-563.656391692319,-547.16988750227,-556.38193507347,-558.972736372292,-543.583202224894
170,-9.46219607559033,68.1406779750541,77.6028740506445,-72.8717760128493,-4.73109803779516,-161.196988820026,-399.996851690696,-386.919319301756,-382.657873487275,-387.911623318127,-395.716280987719,-390.96268417887
171,-8.02510392357362,31.9786083767831,40.0037123003567,-35.9911603385699,-4.01255196178681,-209.847103744527,-459.697919789411,-467.735500579554,-468.884354332055,-451.065065830917,-475.83078538283,-477.712479764683
172,5.4472064038564,8.96278772610822,3.51558132225182,-6.23918452418002,2.7236032019282,-223.804055757166,-451.123692836583,-444.270170203672,-441.068032868381,-456.89118668114,-456.333062546852,-451.274319406191
173,3.25318766164128,0.949873042409308,-2.30331461923197,0.67672078841133,1.62659383082064,-224.101548278035,-445.899781936838,-449.382365185389,-438.702433024766,-455.447672966751,-461.29734237201,-447.108414051676
174,5.97004747844767,-9.6315827081271,-15.6016301865748,12.6166064473509,2.98502373922383,-311.982795119518,-608.363960052462,-607.801995994319,-609.496065028012,-611.126202179817,-603.57611722179,-606.089936793083
175,5.34426323027583,-13.5931539250305,-18.9374171553063,16.2652855401684,2.67213161513791,-387.241488383996,-755.545559612685,-764.626873252157,-750.412389106641,-760.109881403099,-760.831145810807,-756.784748885722
176,-4.62913622701308,-35.5620559268282,-30.9329196998151,33.2474878133216,-2.31456811350654,-557.644339914172,-1084.35576012853,-1081.71266918239,-1086.89111120565,-1075.0136715085,-1077.91894791997,-1091.60837680404
177,6.2260020240501,69.4107138054969,63.1847117814468,-66.2977127934719,3.11300101202505,-703.12945350568,-1469.44361879281,-1464.21026314265,-1476.47631210316,-1472.97748995895,-1466.18244329063,-1469.4270522494
178,5.69095323837246,197.854475820757,192.163522582385,-195.008999201571,2.84547661918623,-1037.80113385782,-2267.76579029803,-2273.6761165153,-2286.11996030365,-2273.88890891601,-2279.92966142576,-2281.21783766983
179,-3.17706575078773,110.379281105124,113.556346855912,-111.967813980518,-1.58853287539387,-2466.44515559619,-5046.44665804828,-5044.77826611564,-5040.96166106313,-5031.12527558487,-5031.48122363989,-5024.76700571075
180,-24.2756439810328,-12.3908696704602,11.8847743105725,0.253047679943847,-12.1378219905164,-843.240475443949,-1698.36572519847,-1710.00643909432,-1703.57454828057,-1695.46356193221,-1716.29796658928,-1710.36127344417
181,18.9969439403503,118.029941528395,99.032997588045,-108.53146955822,9.49847197017516,-219.28406063687,-537.601118861785,-537.034115335991,-524.223389303137,-538.044029442332,-539.589788901212,-527.650494097092
182,-0.132236481120344,-43.1261853183678,-42.9939488372474,43.0600670778076,-0.0661182405601721,-76.0430589017487,-109.09216896625,-102.159822058253,-95.3554044868506,-102.874464145629,-119.44333992395,-115.717059046845
183,-5.84472181199817,-107.95728499454,-102.112563182542,105.034924088541,-2.92236090599908,59.8754005759547,221.863364334451,217.148214899178,195.71266672347,211.042741625803,219.309407815803,216.0281450685
184,-4.54829024348874,20.6339942092309,25.1822844527196,-22.9081393309752,-2.27414512174437,252.771677727957,480.361071003194,487.27356002864,485.56523606251,496.076178419171,510.051116135262,501.197906362213
185,2.18317853461485,-10.7992980667332,-12.982476601348,11.8908873340406,1.09158926730743,271.466335713529,555.915148028405,550.323250599671,559.310962616146,548.646525972494,559.969491780415,559.864158766432
186,1.52198320385651,-86.7134219184809,-88.2354051223374,87.4744135204091,0.760991601928254,214.207856260764,516.651117643865,516.268755112425,526.417308445234,526.319038383343,537.600028212997,527.116639850603
187,10.9936647449795,41.8180374890799,30.8243727441004,-36.3212051165901,5.49683237248973,300.224252229673,569.624131715245,583.160232748807,551.936285362463,561.882774848054,565.171942966786,556.781581001327
188,-7.94193310503033,79.4612848341058,87.4032179391361,-83.4322513866209,-3.97096655251516,350.470797142378,613.538376345619,628.052366029006,624.807637372229,613.715175445657,624.87816643616,612.241840970179
189,-2.9226443618245,-110.445235806284,-107.52259144446,108.983913625372,-1.46132218091225,201.042428065193,509.607447574846,492.690959344065,508.115664649318,501.178205951321,502.344827464112,508.301703825331
190,7.93720016779844,1.77912978810491,-6.15807037969353,2.18947029579431,3.96860008389922,265.625173946828,537.40841827335,547.815352418838,544.378803322383,538.671051523299,540.337876681908,550.136089552689
191,4.96663556009298,49.4444307385129,44.4777951784199,-46.9611129584664,2.48331778004649,321.792855625143,599.107916071865,617.016950859281,605.458870944596,611.192536590213,611.191919602861,606.772239774058
192,-9.67337978479918,-52.1668660893047,-42.4934863045055,47.3301761969051,-4.83668989239959,247.676155829424,537.845797963353,543.766937047447,555.645036271308,545.850759769382,545.163534932013,557.148413299525
193,-1.92497080305475,-85.6246334327152,-83.6996626296605,84.6621480311878,-0.962485401527374,240.738464589871,565.176591809402,575.308658454363,558.620867938444,557.222859483911,564.691266951908,555.064365617407
194,1.68156952460413,48.5062271223869,46.8246575977828,-47.6654423600849,0.840784762302064,353.338092103309,659.851526608836,632.927183114371,649.584657227388,644.185052219342,640.628418697597,645.723121417279
195,2.41300628273166,-103.985765761259,-106.398772043991,105.192268902625,1.20650314136583,191.734362445481,489.867496934952,486.346266321663,490.32323271106,483.072245328658,482.615303128521,478.428247504809
196,4.5263313894975,-79.6289353317698,-84.1552667212673,81.8921010265185,2.26316569474875,-21.7903818811465,40.5745029589743,35.2182152025634,40.40059980363,38.3383118571946,27.5612000600377,31.3356179738767
197,-0.792242563824402,-22.1608905726171,-21.3686480087927,21.7647692907049,-0.396121281912201,-412.809707325476,-804.250766642159,-801.786459265772,-791.371457294852,-784.794860199647,-790.161197121924,-800.844873828697
198,-2.43925311521161,120.612105947104,123.051359062316,-121.83173250471,-1.21962655760581,-1049.93107274782,-2222.91350455795,-2208.68799555078,-2205.27427117637,-2194.99743021085,-2210.08556110191,-2209.08873080497
199,-13.8991510793276,598.475681559619,612.374832638947,-605.425257099283,-6.94957553966378,-1839.58273244032,-4291.54029751959,-4296.63986124552,-4296.48922275077,-4285.96131059789,-4303.29388689302,-4294.01936200957
200,-6.76460372848669,489.209299121692,495.973902850179,-492.591600985936,-3.38230186424335,-4113.29862691756,-8722.5711566853,-8740.82618070106,-8734.31123095241,-8712.49265952906,-8733.73108637164,-8723.18313406984
201,-0.895128230389673,453.121480075206,454.016608305596,-453.569044190401,-0.447564115194837,-10922.7933084283,-22299.6032251623,-22317.3381005696,-22292.331705895,-22284.0803398579,-22320.8140555872,-22314.3512582858
202,2.41794933588244,181.844030653971,179.426081318088,-180.635055986029,1.20897466794122,-4960.59890927389,-10100.6238998659,-10109.8956942037,-10095.6199617976,-10094.2336957237,-10107.5886109594,-10113.0208745791
203,6.13369112636428,17.4335316348879,11.2998405085236,-14.3666860717058,3.06684556318214,-3179.64947904735,-6370.59879860323,-6381.42472211874,-6365.41894789139,-6369.74059423912,-6386.67094394725,-6371.67817651224
204,10.212203928153,128.684019921609,118.471815993456,-123.577917957533,5.10610196407652,-2068.42828218851,-4255.32838037048,-4229.59310084253,-4232.51398808591,-4243.07657332407,-4237.38508557598,-4245.89974768402
205,0.558221941901138,74.9200225528912,74.36180061099,-74.6409115819406,0.279110970950569,-1460.30390807797,-2994.96961676693,-3005.41666932008,-3005.06199760913,-2989.27283614661,-3001.41215888792,-2992.96684609441
206,-1.14059205079684,83.6368656989362,84.777457749733,-84.2071617243346,-0.57029602539842,-1076.06178273668,-2236.90102322309,-2236.67262530205,-2233.86481147716,-2229.0682316809,-2235.95437977958,-2242.3349341935
207,-6.47663623985136,-57.3748439724732,-50.8982077326218,54.1365258525475,-3.23831811992568,-942.19335877143,-1833.48850981024,-1826.06364797184,-1836.9540623049,-1831.51970439346,-1832.3192947846,-1839.16215990286
208,-9.68145325646037,-85.0166282841237,-75.3351750276634,80.1759016558935,-4.84072662823019,-986.863095551642,-1898.39101607562,-1905.84796844769,-1899.08853652002,-1903.18891452177,-1896.86244609399,-1906.01678147426
209,-8.02468164934544,37.453691865463,45.4783735148085,-41.4660326901358,-4.01234082467272,-907.33425019891,-1860.14687391263,-1838.11435882447,-1852.15492702377,-1857.56301019315,-1852.63842997086,-1856.13319207856
210,0.465430466516409,142.197743140947,141.73231267443,-141.965027907689,0.232715233258205,-820.043175112412,-1781.81866289926,-1791.91081981189,-1769.64999143209,-1784.50784211833,-1777.70901987393,-1795.61967051864
211,10.6153727118217,20.0426426574995,9.42726994567784,-14.7349563015887,5.30768635591085,-933.042638409606,-1875.51254676489,-1877.92032683696,-1871.92489961832,-1873.70556639702,-1882.55006932002,-1861.73053023589
212,6.31324649363523,-17.5971284478437,-23.9103749414789,20.7537516946613,3.15662324681762,-978.287642347248,-1932.66490975302,-1922.86610488602,-1931.58777034126,-1931.36568172273,-1940.09793150428,-1938.0283634587
213,-1.76597548008431,-128.807895862061,-127.041920381977,127.924908122019,-0.882987740042154,-1061.71487542783,-1996.38783047369,-1993.71902820547,-1999.99724068728,-1990.20583382761,-1989.86128076602,-2009.19715380945
214,12.2752135048213,-19.1852752325649,-31.4604887373862,25.3228819849755,6.13760675241065,-987.111271115951,-1942.76205349452,-1950.14527987354,-1960.26653049787,-1947.39083523836,-1961.10616469779,-1954.11016801765
215,12.2285856612434,32.2322542342008,20.0036685729574,-26.1179614035791,6.11429283062171,-938.982505089283,-1897.96867875152,-1894.27055034891,-1903.36498344742,-1906.98562805832,-1909.70130596991,-1912.83682331693
216,-5.24985450750683,-115.843597043713,-110.593742536206,113.21866978996,-2.62492725375341,-1051.17035727327,-1991.74697201033,-2001.38606352353,-1997.97877377676,-1973.77371071911,-1996.3061654818,-1994.55963401942
217,-7.40794287397875,94.4781247956853,101.886067669664,-98.1820962326747,-3.70397143698938,-896.635009744947,-1895.15608715956,-1905.04104668615,-1897.80810870917,-1883.11268357793,-1902.2173877793,-1885.99319969487
218,5.19671819260111,-62.5763203387032,-67.7730385313043,65.1746794350038,2.59835909630056,-1028.72079423547,-1989.66854993964,-1990.08778119873,-1981.42261872158,-1996.76103613165,-2000.93248762729,-1995.797679301
219,-11.651622322388,53.1596176841122,64.8112400065002,-58.9854288453062,-5.825811161194,-933.423356687388,-1931.65795338128,-1931.21060974771,-1934.72436274023,-1931.46925840015,-1938.12562731581,-1926.00981765732
220,3.30735005633323,-21.8844474881771,-25.1917975445103,23.5381225163437,1.65367502816662,-1030.52670813612,-2035.86161872774,-2057.75467934133,-2051.43790449217,-2051.0739810181,-2054.85033602954,-2057.92487397822
221,-0.0605872437881771,10.881517180329,10.9421044241171,-10.911810802223,-0.0302936218940886,-1026.13551688027,-2063.21313818466,-2052.30032684546,-2064.26510401021,-2057.32575811414,-2069.64495043084,-2067.12625942388
222,4.28443770692684,-39.8311865770957,-44.1156242840225,41.9734054305591,2.14221885346342,-1071.21541950086,-2098.3152147177,-2088.78902550964,-2087.85006421056,-2089.56878064785,-2083.4531163582,-2081.91973410128
223,7.66970619038329,81.651946994185,73.9822408038017,-77.8170938989933,3.83485309519165,-991.57280957418,-2057.12785995216,-2063.68154449371,-2042.25159051066,-2046.49055832915,-2048.02151541508,-2047.18367180086
224,-6.15103811759036,102.21886878676,108.369906904351,-105.294387845555,-3.07551905879518,-961.073190212977,-2030.51628733031,-2056.03560005961,-2043.39460961043,-2039.11284436024,-2042.24064708725,-2043.24098960275
225,1.0353910397971,-73.7844666453602,-74.8198576851573,74.3021621652588,0.517695519898552,-1136.43441669198,-2198.0489756988,-2191.80782777708,-2190.47588742894,-2203.58669973578,-2184.7947073477,-2184.37421786037
226,-5.36635012325132,71.3536744207668,76.7200245440181,-74.0368494823924,-2.68317506162566,-1020.21067380533,-2117.14137215467,-2119.13968514762,-2108.5146803082,-2120.69635369343,-2121.56880868066,-2123.78166506192
227,-6.59721501689637,15.9381590284174,22.5353740453138,-19.2367665368656,-3.29860750844819,-1078.13207915012,-2178.79953234555,-2178.8327002608,-2180.68483720766,-2188.11986061139,-2181.62122489628,-2183.43401974079
228,9.64044155590818,81.6262062514143,71.9857646955061,-76.8059854734602,4.82022077795409,-1030.45475409903,-2132.89527289357,-2132.42129177498,-2140.98384384197,-2128.61425383977,-2134.96712329186,-2125.54586252381
229,-10.2136199055822,-90.6515376454045,-80.4379177398223,85.5447276926134,-5.10680995279108,-1157.26199859256,-2234.08607944529,-2232.82660140426,-2232.57637960865,-2225.43896719607,-2230.27646752421,-2238.25252190031
230,-5.44498245450086,-117.159002661472,-111.714020206971,114.436511434222,-2.72249122725043,-1174.61758196719,-2237.52114372741,-2228.86391802874,-2235.54833844048,-2223.69209618639,-2235.56053708954,-2244.63628008257
231,14.2258523201745,-35.1485161586024,-49.3743684787769,42.2614423186897,7.11292616008723,-1105.46475414555,-2161.55513981232,-2181.60595803426,-2165.14250039219,-2175.66169213373,-2169.13916723212,-2164.70187461059
232,1.81617483857553,31.3162232736067,29.5000484350312,-30.408135854319,0.908087419287767,-1060.51221732756,-2150.52448309015,-2147.32195977648,-2154.34351295824,-2151.31385986906,-2145.685432303,-2147.66838816367
233,2.61334469923167,-120.321743754408,-122.93508845364,121.628416104024,1.30667234961584,-1173.42179486164,-2223.90850126965,-2208.75285960254,-2208.25030661252,-2214.53538366582,-2224.02602357944,-2228.22455825788
234,11.5284572138626,171.687501386157,160.159044172295,-165.923272779226,5.76422860693128,-938.123812558231,-2036.40666928876,-2042.50258694025,-2017.63195807667,-2032.86123885785,-2046.20117866102,-2021.86535994842
235,-0.863117215631064,-134.784528082964,-133.921410867333,134.352969475149,-0.431558607815532,-1195.25473853739,-2256.58806620745,-2247.06796534371,-2260.15040722789,-2245.59006137252,-2252.57423181075,-2248.15049587932
236,-4.44619583658641,-29.5527230035223,-25.1065271669358,27.3296250852291,-2.22309791829321,-1108.37664289505,-2191.64675862316,-2183.87242423493,-2179.69982590489,-2174.85791997795,-2189.85479769774,-2173.01740494135
237,-5.53581577879959,-108.285260710603,-102.749444931804,105.517352821204,-2.76790788939979,-1145.93640405744,-2189.12336318308,-2183.59938440137,-2181.42061773944,-2184.33063600046,-2188.10106856652,-2191.42829716663
238,-3.16393867062288,33.5611025630787,36.7250412337016,-35.1430718983902,-1.58196933531144,-1043.09148788721,-2122.90801700813,-2127.85627440724,-2151.20195275397,-2138.03511298716,-2127.80012446168,-2138.4486044037
239,-10.7454239357903,-26.6844072140811,-15.9389832782908,21.311695246186,-5.37271196789516,-1844.17542211436,-3672.41186095044,-3686.18894709789,-3671.80207683507,-3666.44973381856,-3671.8668779505,-3680.20534374603
240,-5.78133741629426,131.681478819519,137.462816235813,-134.572147527666,-2.89066870814713,-3054.69055672,-6246.84392967582,-6234.23753847211,-6232.61837757577,-6206.71050931033,-6232.58633002258,-6242.26534512476
241,10.359722079651,179.669755523762,169.310033444111,-174.489894483937,5.17986103982548,-5116.37492682958,-10402.0598871033,-10409.6933558868,-10411.9337731042,-10389.896439031,-10407.8333275943,-10410.6131730237
242,-12.246105279919,203.877354584605,216.123459864524,-210.000407224565,-6.1230526399595,-8578.89597828798,-17373.9154164405,-17377.9778320398,-17356.0806560625,-17341.4684427587,-17398.4516400647,-17377.019200138
243,23.031513833761,368.810323047859,345.778809214098,-357.294566130979,11.5157569168805,-14943.0090452055,-30231.7968996252,-30247.6880013717,-30218.9472662113,-30189.822301205,-30253.8042494731,-30255.2094688913
244,-12.6920995516994,840.804921885661,853.497021437361,-847.150971661511,-6.34604977584968,-34957.5900172409,-70768.6770559192,-70801.4510952462,-70725.8322122265,-70684.3952689359,-70818.8706116595,-70806.9520027431
245,-6.77292695362121,308.79722112132,315.570148074941,-312.183684598131,-3.3864634768106,-14407.4052601116,-29130.3806682981,-29144.0394002772,-29115.9098156973,-29116.0436546627,-29150.9067096034,-29155.6764675844
246,-10.5870804846054,209.340658685804,219.927739170409,-214.634198928106,-5.2935402423027,-7779.26828514424,-15778.4643094589,-15773.0895368222,-15762.489776185,-15764.3718445518,-15772.23989874,-15786.139520604
247,-1.4606567658484,-68.7764928870893,-67.3158361212409,68.0461645041651,-0.730328382924199,-4398.60633614693,-8729.89683617261,-8724.83927240339,-8714.95162845004,-8706.62223210564,-8735.30785005642,-8730.60923509405
248,19.8315233310277,-86.6822574447433,-106.513780775771,96.5980191102572,9.91576166551386,-2229.84163736476,-4353.16949395376,-4373.23764573943,-4364.12087154327,-4346.30152488552,-4359.75732564423,-4375.58412049149
249,1.54081302179839,-459.750731550419,-461.291544572217,460.521138061318,0.770406510899193,-1168.21788706724,-1875.14422956225,-1873.10477637319,-1869.43100548466,-1872.02689152132,-1876.00938257496,-1858.31062241303
250,-7.22309951420175,-194.497616548237,-187.274517034035,190.886066791136,-3.61154975710087,-210.095987580571,-232.917458127107,-214.795619992947,-229.498914929456,-224.457240919321,-231.26514809535,-240.78542835539
251,8.85519232301158,-190.071410720673,-198.926603043685,194.499006882179,4.42759616150579,-185.772391097198,-172.618179150712,-175.661786175886,-174.238763853704,-180.918037707394,-179.481049038499,-168.34531380824
252,-11.8417408599635,-130.775559969712,-118.933819109749,124.85468953973,-5.92087042998173,-119.848351856228,-120.762884602707,-120.094606627536,-122.880325244099,-120.081530411699,-116.889057250461,-114.756330572825
253,8.51379871851532,-46.2866163248837,-54.800415043399,50.5435156841413,4.25689935925766,-44.8755529883347,-34.9506909332704,-40.8059248923964,-29.6597786803322,-42.3527806807251,-35.3663800714712,-39.6937683926371
254,-2.33800232753856,-60.8246703894984,-58.4866680619598,59.6556692257291,-1.16900116376928,-23.6121026223991,11.2624628171616,-9.33516014213092,4.9640268299845,14.3183099548914,-6.71184104727581,6.92881919923821
255,1.55930477334186,-12.8758546270838,-14.4351594004256,13.6555070137547,0.779652386670932,33.8065705504268,82.0483005012793,83.7418839827005,79.8364724480198,66.324009368167,75.7403150646714,76.1971474247985
256,10.4622416160419,31.7649509452458,21.3027093292039,-26.5338301372249,5.23112080802093,91.2810082586802,161.259307188157,165.71955646429,158.748012138705,161.358430826454,160.946989807853,162.443961929384
257,-0.373530868964735,109.289024378202,109.662555247167,-109.475789812685,-0.186765434482368,164.852155393935,220.041755540704,229.161312976154,229.187625475723,230.267059982201,232.763123883167,216.903379135649
258,6.72491243059631,-44.4363562699,-51.1612687004963,47.7988124851981,3.36245621529815,80.567400206899,212.296069114294,207.647621528682,216.512499505479,204.560600121273,216.352083526348,207.094502438238
259,2.73749332159059,118.425021114206,115.687527792616,-117.056274453411,1.3687466607953,230.322098181379,344.956668570143,338.265886990848,342.40187037547,343.629207831109,334.48641801023,345.17592208425
260,4.81337121751858,-63.3967158439627,-68.2100870614813,65.803401452722,2.40668560875929,67.7689743762166,203.748035813915,212.940588956786,205.913605521491,209.975143197196,208.30025872041,213.239712083683
261,-11.5800788776542,81.4462468963466,93.0263257740007,-87.2362863351736,-5.79003943882708,199.984795339886,306.943264905771,301.23050598093,318.657560254884,292.774350081483,293.80153549448,295.927156685153
262,-6.57707272880361,-79.2361118486151,-72.6590391198115,75.9475754842133,-3.28853636440181,78.31023976492,229.279518649651,250.276851804461,239.452594030357,233.255687096476,235.152049219003,237.358856261388
263,-0.186257683846634,-164.808657865477,-164.62240018163,164.715529023553,-0.0931288419233169,44.1161671304581,252.854734442546,253.156848455721,249.206785643502,254.009929971711,253.580718007463,261.613135307853
264,-6.11174436239526,-90.1652169923764,-84.0534726299811,87.1093448111787,-3.05587218119763,131.81497878478,347.68343019954,358.334108093753,357.49295416291,359.025264890864,363.026401104813,356.033437675535
265,14.6918670636078,-200.322734595975,-215.014601659583,207.668668127779,7.34593353180389,27.5034415892005,270.021484837984,259.219417525863,246.988020126912,268.613107005513,267.991769999935,259.222297397471
266,-14.7486363651988,135.563164008869,150.311800374067,-142.937482191468,-7.37431818259938,298.518486468849,446.725172563631,439.661574540631,457.314089368534,440.450746329589,448.804612788139,443.680350532901
267,12.8603056169231,108.506806930731,95.6465013138077,-102.076654122269,6.43015280846157,277.266709308882,458.886917303957,463.419913271209,458.326865439623,455.343384978187,456.69556946418,464.545750047691
268,-2.56990445472184,48.4146422455669,50.9845467002888,-49.6995944729279,-1.28495222736092,239.237802648946,427.491058597603,423.891357521934,419.714712863584,430.969085674413,412.491848648526,423.436601244641
269,-1.75257377911475,35.7875801654009,37.5401539445156,-36.6638670549582,-0.876286889557377,245.511272748903,453.482391553291,442.253718086693,435.982209340058,436.520277431118,444.056769073679,439.759916737734
270,-3.50181227101712,-62.4146761460579,-58.9128638750408,60.6637700105493,-1.75090613550856,183.922580735889,426.758025346819,437.208417965187,425.228903247247,440.453971171373,419.791354829125,434.579287593515
271,-8.80665750658954,4.7526254147524,13.5592829213419,-9.15595416804717,-4.40332875329477,251.668855314623,489.778427707904,485.572708778665,483.181580314907,485.849607363431,495.979931596696,482.994447931153
272,8.00300789155881,-137.550457994483,-145.553465886042,141.551961940262,4.0015039457794,157.950455046215,461.454375978472,474.715911603358,483.400559522561,470.715862893296,474.722267153324,469.989625918039
273,5.05924271547701,-2.01108067348832,-7.07032338896533,4.54070203122683,2.52962135773851,300.324939979604,607.720203348174,619.4657329779,611.240798708168,609.663471383625,613.893532701477,615.020992753154
274,7.89670091262087,185.785496477969,177.888795565348,-181.837146021659,3.94835045631044,439.658986056369,701.42917654739,687.37978328942,699.813650957891,696.763534856495,710.526092433312,701.654296700901
275,-2.01877646244247,63.3642767092097,65.3830531716521,-64.3736649404309,-1.00938823122124,367.120640769295,668.858228366938,691.180674906209,668.010011678067,663.520437766012,668.686900598899,678.99905001407
276,-1.0888986211794,-87.9647454168298,-86.8758467956504,87.4202961062401,-0.544449310589698,268.081308989247,623.038464774145,617.929978439439,613.033685613133,634.073435853556,617.347786103172,629.543147755874
277,-1.587946906453,-146.505934298271,-144.917987391818,145.711960845045,-0.793973453226499,213.328669728304,571.575326848426,560.499159666128,567.812160808593,575.807074441458,575.190295159031,567.356509248551
278,-4.17504572414327,53.3767758661706,57.5518215903139,-55.4642987282423,-2.08752286207164,364.303235403553,671.054649216792,679.29628115645,673.143798930367,668.178480045433,679.218062937376,677.266371737729
279,-12.914835984644,83.6734883259342,96.5883243105782,-90.1309063182562,-6.45741799232201,400.543739133544,704.499153956509,692.450576501316,709.856016410544,712.217170384829,721.363998333836,707.150685602915
280,-4.31375177882728,158.887045707932,163.200797486759,-161.043921597346,-2.15687588941364,474.050976732658,784.901155978558,784.248494049854,790.203697448218,795.265064710547,785.4011283734,783.031119057472
281,-1.82881602298585,-39.5822085649124,-37.7533925419266,38.6678005534195,-0.914408011492924,340.341282443318,718.435957428563,720.264754763513,711.723252428434,697.959825083526,709.985854990053,701.178441538272
282,9.71499750344083,-29.040182553581,-38.7551800570218,33.8976813053014,4.85749875172041,336.326674933749,711.40852992452,716.485064235254,707.395921414165,708.196084640746,704.238103393378,721.04617442665
283,2.29691704252036,71.8374199268292,69.5405028843088,-70.688961405569,1.14845852126018,446.339400630503,823.138298376696,814.179991614597,830.583201284724,816.096973453561,834.912810730457,822.328271981067
284,-4.38495507964399,-242.521877043735,-238.136921964091,240.329399503913,-2.19247753982199,896.961486422646,2032.05989480938,2019.59899163884,2025.69749581278,2014.0964157687,2019.99960994045,2029.15503851394
285,-10.5907844785252,17.6583949871711,28.2491794656962,-22.9537872264336,-5.29539223926258,2274.15547642179,4520.06177337788,4519.96424900088,4512.67570932419,4499.42401608103,4529.36155372203,4525.16711053191
286,-2.58701289180317,-139.534136969654,-136.947124077851,138.240630523753,-1.29350644590158,4089.72272722929,8316.39257853644,8332.04194774028,8318.16293687813,8314.2196084678,8320.56856373331,8338.49917544014
287,-0.355706348986132,-166.158171013318,-165.802464664332,165.980317838825,-0.177853174493066,7273.61337216014,14713.0292089846,14688.2358066969,14675.6122974045,14673.3216321295,14701.6097129458,14704.4424429471
288,1.99079761936446,-363.640912513947,-365.631710133312,364.636311323629,0.995398809682229,13043.720058052,26453.0718262374,26478.8230773287,26441.5081911228,26426.0651808761,26471.4222119954,26469.1791494818
289,10.6601481325342,-631.182249030477,-641.842397163011,636.512323096744,5.33007406626712,31483.9827686465,63609.8079344561,63639.0008752683,63580.9016426727,63538.5945829097,63669.3564079292,63645.4949628124
290,-1.15892594339675,-268.239055671642,-267.080129728245,267.659592699943,-0.579462971698376,13285.9777378794,26839.0356054871,26839.4630980162,26819.8939664403,26807.061028645,26870.7077632959,26855.0871376579
291,3.17835778617882,-298.267411219131,-301.44576900531,299.85659011222,1.58917889308941,7405.28017667215,15112.0061223496,15118.0346664153,15093.5923053325,15088.554380164,15117.3154331383,15110.6475828909
292,0.833099529409083,-76.5408579898067,-77.3739575192158,76.9574077545112,0.416549764704541,4410.18822926485,8897.75041604892,8918.30393370346,8898.42663457504,8893.63873898218,8914.16852808994,8902.49649632946
293,6.43445037625497,-19.9086996206897,-26.3431499969447,23.1259248088172,3.21722518812749,2544.30737878069,5114.95790755833,5106.29872129756,5115.54909303557,5112.43685424858,5127.39603270008,5115.45193975582
294,1.36306087541743,32.0148559607915,30.651795085374,-31.3333255230827,0.681530437708716,1422.40255396497,2814.15331284457,2813.08820639155,2814.69757711914,2799.14416872559,2814.95422272684,2808.3300070237
295,-2.67154729977483,5.68592334925779,8.35747064903262,-7.02169699914521,-1.33577364988741,733.621848859751,1458.88622707047,1455.39135036376,1431.9767893579,1448.57189682656,1450.19972283498,1451.62633058411
296,-8.50537410590914,-22.7153858582315,-14.2100117523223,18.4626988052769,-4.25268705295457,707.104991100772,1428.41999395387,1435.63519843569,1427.80291735494,1430.57959238894,1422.53751507963,1430.29558366415
297,-2.56789360952098,214.980041528121,217.547935137642,-216.263988332881,-1.28394680476049,893.040822951531,1568.53371076542,1585.16666944308,1579.85728047503,1577.34696556802,1572.71383329458,1572.60044443616
298,5.20516364462674,150.115775609796,144.91061196517,-147.513193787483,2.60258182231337,826.878627613623,1508.84664326208,1513.6122168377,1527.36741070944,1510.29652979574,1521.0540757784,1514.37845351387
299,1.13591535500018,457.637012713269,456.501097358268,-457.069055035769,0.56795767750009,1061.86155556761,1667.22201377695,1654.1068791759,1660.73037266903,1672.56660567177,1658.4731755236,1664.10935534889
300,7.84458577787154,455.437859095255,447.593273317383,-451.515566206319,3.92229288893577,1042.09567692186,1636.59808052634,1637.01774006203,1645.85359676811,1637.16936681262,1637.30584931793,1654.12185561482
301,-10.5162140139146,186.65533850214,197.171552516054,-191.913445509097,-5.25810700695729,851.676066670145,1506.18058082424,1499.23898717941,1508.1060905492,1505.55632611393,1519.48277444477,1511.58525536107
302,4.07127176859649,76.0486007753061,71.9773290067096,-74.0129648910079,2.03563588429824,771.392467172045,1470.80760533738,1460.20421704193,1452.94876278104,1460.08745512349,1456.22209656876,1470.99758455786
303,5.66079926316161,-9.49078228056896,-15.1515815437306,12.3211819121498,2.8303996315808,708.890722356213,1432.93302625616,1444.44240003917,1449.58706523536,1437.76222619918,1434.61532125995,1445.83117748407
304,-0.26873457810143,-240.362315780512,-240.093581202411,240.227948491462,-0.134367289050715,519.45418174137,1279.00194468515,1278.76741060225,1264.76240968026,1269.58770093267,1275.91081931925,1277.48159587351
305,-4.31841763330158,40.3203335748985,44.6387512082001,-42.4795423915493,-2.15920881665079,737.279568328056,1429.92038544791,1426.04496072457,1437.59087293266,1433.54040095434,1433.31817497563,1412.30026266773
306,1.73608273861464,-33.2142783975578,-34.9503611361724,34.0823197668651,0.868041369307321,667.244568274677,1369.43949768553,1377.60672155622,1369.88955231142,1376.16420639434,1366.57214042859,1368.02118729183
307,-2.01554975350155,-10.161362133018,-8.14581237951643,9.1535872562672,-1.00777487675077,695.21079513953,1398.56740265858,1407.2570836455,1397.23875993417,1411.3698856204,1394.83899823885,1396.19830509878
308,1.19320846247138,23.8711141020176,22.6779056395462,-23.2745098707819,0.596604231235688,698.908123502188,1375.13834136483,1370.92672074842,1365.33259053793,1365.24029381672,1378.90355643758,1384.7034988766
309,1.88012601179071,-100.938179258752,-102.818305270543,101.878242264647,0.940063005895354,603.285353036656,1309.38901134385,1308.15443961762,1325.84895473943,1319.20878149386,1317.80209352446,1321.11197541293
310,-2.17162804797408,92.3415955890086,94.5132236369827,-93.4274096129957,-1.08581402398704,761.393974917053,1428.27472619712,1452.83767385859,1434.84539637022,1440.28677030106,1435.61274851114,1427.38105937364
311,-12.0186043567373,-17.8559626924689,-5.83735833573155,11.8466605141002,-6.00930217836867,678.391845575214,1362.62104948616,1354.6412419331,1332.01158583045,1342.74880228328,1348.56950322041,1348.60259363297
312,6.18151036452036,-84.4733393874194,-90.6548497519398,87.5640945696796,3.09075518226018,630.746839132684,1352.14852801731,1343.58307906816,1355.29520984087,1345.78067849905,1353.00635083194,1366.92615581039
313,-3.46895030172891,163.039502994623,166.508453296352,-164.773978145487,-1.73447515086445,789.453206691382,1412.39796008641,1417.41296941534,1434.2579840495,1425.99558429065,1422.47583140913,1422.82988007998
314,-2.50009259927901,-84.2254155668197,-81.7253229675407,82.9753692671802,-1.25004629963951,626.98725387489,1335.69983071732,1332.43173325757,1334.58889241211,1339.89907370717,1348.1958789136,1345.77306252826
315,8.6902157580771,90.5259489106829,81.8357331526058,-86.1808410316444,4.34510787903855,753.827709955498,1425.81968675839,1430.7257884905,1422.58373273921,1423.55412916251,1422.99632692576,1404.09286167243
316,4.6189566476969,71.0222047929419,66.403248145245,-68.7127264690935,2.30947832384845,737.258044082584,1408.11284001992,1409.82148308685,1419.2065045707,1402.8701757291,1412.48155476907,1421.4027882271
317,-0.0561489427927881,57.1391365245217,57.1952854673145,-57.1672109959181,-0.0280744713963941,709.008363381363,1360.82144129541,1349.16630039428,1354.19273133064,1351.36676706892,1358.81804950576,1358.03695481579
318,-5.21844377947855,-19.5797907049418,-14.3613469254633,16.9705688152026,-2.60922188973927,650.973151327897,1316.30764958126,1304.16367424998,1295.31246136027,1319.47423372135,1296.92006585997,1305.56398876687
319,8.50135050163954,-64.3092259823752,-72.8105764840147,68.559901233195,4.25067525081977,590.449285932278,1253.70914834857,1270.28260344517,1266.19603970126,1251.93566912416,1259.70961297464,1259.19859815901
320,0.725017067888984,-71.3094575873693,-72.0344746552582,71.6719661213137,0.362508533944492,595.868241049699,1263.77095675466,1255.69306035864,1244.93077474262,1257.62527759752,1261.24778004992,1251.01445158638
321,-11.0187544019136,16.3637654114282,27.3825198133418,-21.873142612385,-5.50937720095681,655.930375946991,1284.47823208064,1272.76379134058,1283.28585843297,1259.35069140006,1284.63873013487,1276.84014605446
322,3.60646836453816,-57.0493807791208,-60.655849143659,58.8526149613899,1.80323418226908,580.069836740891,1220.79552262544,1209.33827566321,1211.5303566542,1210.90427967411,1209.96265128133,1215.45318236298
323,2.58151896685013,-50.1577661003394,-52.7392850671895,51.4485255837644,1.29075948342506,574.056780693121,1200.85284645343,1202.44254088015,1190.69459592074,1206.07925598064,1208.39514693798,1199.01472957071
324,-8.55690967876581,-46.3323936098022,-37.7754839310364,42.0539387704193,-4.2784548393829,591.133820156509,1220.04312424405,1232.16007632375,1241.02826824496,1206.35398350123,1225.41707381528,1221.10815481047
325,3.04274000431178,40.3047827529663,37.2620427486545,-38.7834127508104,1.52137000215589,648.555642436753,1259.84924212485,1263.73990751887,1274.39170324177,1282.49862023487,1266.10272342266,1254.61089268897
326,-5.03949508754886,-47.6176413682406,-42.5781462806917,45.0978938244662,-2.51974754377443,587.189898663128,1216.95794360695,1235.15754420179,1231.06797058051,1232.91320200081,1214.25670274952,1239.57187625582
327,12.0669246970501,-40.9516042201722,-53.0185289172223,46.9850665686972,6.03346234852506,600.006942473527,1253.03241386428,1236.862271741,1248.98442584788,1228.73221978507,1249.60866711708,1262.79311840789
328,4.06257355111302,36.9535105892865,32.8909370381734,-34.9222238137299,2.03128677555651,1011.75404751052,1990.61715798287,1991.7409334699,2002.28821998389,2007.68886407008,2007.21264615172,2004.5216804283
329,-7.77984760780237,-73.8820282854431,-66.1021806776407,69.9921044815419,-3.88992380390118,1604.33047809616,3274.76313686997,3273.75852467064,3258.64413969568,3265.42892123951,3264.14355755609,3279.47450126399
330,2.6943298682163,-55.9305986813852,-58.6249285496015,57.2777636154933,1.34716493410815,2670.03379096321,5398.69251047602,5391.94167748193,5385.74130533662,5386.63021299036,5395.43975180699,5393.28959583814
331,-0.325829588138731,-211.206275947799,-210.880446359661,211.04336115373,-0.162914794069366,4336.24208757366,8883.36462150697,8886.9248461372,8873.70609297676,8868.7255709052,8879.6991537922,8874.9798800135
332,-4.79306793329306,-199.283559667849,-194.490491734556,196.887025701202,-2.39653396664653,7620.47309793075,15435.4366875961,15440.5823663884,15441.0547087113,15412.987808874,15460.0320042956,15463.0319335819
333,-2.16007421450922,-502.030369763641,-499.870295549132,500.950332656386,-1.08003710725461,17775.4092812909,36050.6888581309,36039.1434783271,36010.153205739,35983.8730533726,36069.2495953279,36055.1016606872
334,4.71941082656849,-189.344448400661,-194.06385922723,191.704153813946,2.35970541328425,7347.98976277768,14890.0433847826,14914.5165662304,14891.1384175236,14889.5688545831,14907.8248981796,14902.0623520105
335,4.67343997323769,-76.4957092318218,-81.1691492050595,78.8324292184407,2.33671998661885,4053.13785476335,8187.44485873176,8208.18947275571,8174.25899734505,8172.59480321876,8181.65467536668,8191.06621852345
336,9.78607654463849,32.3371591316536,22.5510825870151,-27.4441208593344,4.89303827231925,2312.09543857077,4601.63979455453,4602.9473750524,4588.27477843084,4573.43882621123,4623.4436043996,4593.37989939624
337,-0.124278295028489,38.635742339975,38.7600206350035,-38.6978814874892,-0.0621391475142445,1222.04917316232,2405.33832568963,2405.62957956473,2418.46412060814,2406.78045716268,2403.11253633487,2400.91840021775
338,0.0150798181421123,27.1416905897786,27.1266107716365,-27.1341506807075,0.00753990907105617,530.933385647077,1034.74016052252,1032.61080292627,1016.651886318,1020.95457064794,1019.76503910331,1032.23010900186
339,7.41181049571605,181.687715132895,174.275904637179,-177.981809885037,3.70590524785803,241.857072946528,309.438241255877,316.038818557397,323.369046719454,317.416719955596,330.577377580805,313.217855603754
340,-7.13075970459613,-35.5630659497401,-28.432306245144,31.9976860974421,-3.56537985229807,95.1363819884573,218.705070222059,216.380854495248,224.03515616848,228.563714974647,210.102879043174,214.262775497074
341,-16.0326106048597,100.190868021949,116.223478626809,-108.207173324379,-8.01630530242983,204.306295874092,292.389113121375,291.089526955766,293.215819686389,307.435932113091,302.045831500844,299.708634684066
342,0.447898363694549,114.840718931489,114.392820567795,-114.616769749642,0.223949181847274,182.347285151642,250.301749735489,232.469366230391,237.84043320702,244.754092397256,241.596869662666,245.614083376015
343,5.49861420411617,31.7549552961136,26.2563410919975,-29.0056481940555,2.74930710205808,108.726704089306,191.197067086614,215.249159243685,192.133378796891,198.191795172082,197.457248337247,202.070694957249
344,7.78112864182913,-102.860934459139,-110.642063100968,106.751498780053,3.89056432091456,-15.0277163091087,80.5866304827505,78.651356974704,91.8828127886227,78.4900626725284,69.642903274711,78.6443327009038
345,0.60315223998623,-130.241274180997,-130.844426420983,130.54285030099,0.301576119993115,-34.6157646078645,61.6128972052538,61.0117270046612,43.7422813572339,57.9715813246148,47.2883307047887,57.4404158813995
346,6.32204951325548,-118.036725288723,-124.358774801978,121.19775004535,3.16102475662774,-41.3473657016293,41.6640433987195,38.2713316548325,45.6631315772538,34.0849517929018,49.3206108224404,52.9710550127493
347,-6.18539925926598,-159.541380006034,-153.355980746768,156.448680376401,-3.09269962963299,-63.4671503070713,26.4216801326256,20.114997061406,18.4028365343111,39.3888196487387,25.7860800139024,25.8667753562331
348,1.13027926359791,-343.564078179043,-344.69435744264,344.129217810842,0.565139631798957,-191.896733241811,-39.0991090409807,-53.9270262512728,-49.5300118163286,-56.6302318520029,-38.32288630525,-51.5881800843636
349,-0.52947051267256,-479.690290223225,-479.160819710552,479.425554966889,-0.26473525633628,-327.880676656365,-176.600533602177,-191.669837169728,-176.606403866666,-177.422890169575,-177.891556809918,-189.203191862063
350,1.31576725843479,-274.108813045692,-275.424580304127,274.766696674909,0.657883629217395,-179.052999870546,-82.6814194369654,-82.4149054879672,-87.4425711724616,-86.7830752923619,-98.9198765725596,-84.5413048120099
351,-1.52866993634962,-131.339115637005,-129.810445700656,130.57478066883,-0.764334968174808,-70.5845123988547,-11.3585790970537,-11.7023631710326,-34.0137999931758,-34.4138958272233,-10.5992816843209,-18.28673299402
352,-4.29521744325757,-17.9402197906165,-13.645002347359,15.7926110689878,-2.14760872162879,5.24386214092374,24.1327266292064,11.0306820171245,9.41030059542391,19.9349919817469,11.3264249802742,5.74270258579054
353,1.52664192015072,31.7755784997426,30.2489365795918,-31.0122575396672,0.763320960075362,29.4568304759305,28.6647243722691,32.3236557531927,45.8993289892969,36.8864075820602,24.9423745131062,33.1452703471296
354,3.06963625305798,56.1652921674249,53.0956559143669,-54.6304740408959,1.53481812652899,34.931012907371,16.7663699003751,28.8787187592534,35.3226711372263,13.7070692764537,44.1652640208486,17.6188393831835
355,7.31753793862299,-110.639902243274,-117.957440181897,114.298671212586,3.6587689693115,-102.905656011644,-87.8538718413911,-72.0203370609088,-71.6402103893051,-79.4547253033088,-88.7255594406743,-64.3324140249752
356,-3.89320034207776,-145.519292494311,-141.626092152233,143.572692323272,-1.94660017103888,-456.500966185689,-771.375840219145,-750.616948331968,-755.093120245583,-742.196852372668,-752.68432197423,-750.740133971209
357,-0.199556695821229,-127.212210890255,-127.012654194434,127.112432542344,-0.0997783479106147,-979.3099240843,-1831.60719397417,-1816.97496530999,-1821.76566391517,-1823.72904275826,-1836.24562502044,-1823.81968258496
358,8.81435171107296,6.81121291834279,-2.00313879273017,-2.40403706280631,4.40717585553648,-1794.06945074868,-3586.13576270462,-3580.8324270611,-3594.47656369081,-3571.93506667556,-3599.03857233725,-3592.5993435444
359,-10.7716726484068,235.17128834562,245.942960994027,-240.557124669824,-5.38583632420341,-3061.57912787361,-6369.10121674126,-6369.25426223935,-6363.59831645465,-6363.29032628043,-6355.44272559826,-6372.73607618955
360,-1.51026286254637,288.597140155151,290.107403017697,-289.352271586424,-0.755131431273185,-5731.13804545895,-11752.3834939356,-11772.8029390967,-11762.4005400583,-11743.8209999233,-11761.7539163824,-11755.9590233234
361,-9.64553372128285,548.097683333006,557.743217054289,-552.920450193647,-4.82276686064142,-14130.1578068411,-28818.0588307364,-28842.7013272372,-28818.0640461794,-28768.1080350492,-28836.0973103009,-28848.067185426
362,-0.972472865396412,98.701600049535,99.6740729149315,-99.1878364822333,-0.486236432698206,-5555.15196050308,-11209.9779939211,-11225.4629935042,-11211.3151406806,-11201.8150131069,-11233.5245001776,-11225.1438872817
363,11.4702685605444,-51.0236905831262,-62.4939591436705,56.7588248633983,5.73513428027218,-2770.01017208875,-5477.52638503382,-5476.96715840563,-5478.573476661,-5469.94296782234,-5481.46574404175,-5490.05250711303
364,0.677123680914519,-40.916157341504,-41.5932810224185,41.2547191819613,0.33856184045726,-1209.28157153743,-2376.96986205244,-2379.12734494402,-2391.4202892833,-2381.14609611701,-2380.3901610935,-2383.31055664469
365,1.97164349356899,48.5100991310028,46.5384556374338,-47.5242773842183,0.985821746784495,-220.952960239621,-488.444376116677,-480.942682044697,-467.786933880328,-484.292001201276,-471.188095573656,-474.167681991705
366,4.69371362859965,11.1776379114308,6.48392428283114,-8.83078109713097,2.34685681429983,321.364583314731,636.245242346631,621.413052659947,641.360513177147,622.917557502515,627.101129508956,639.070898212231
367,8.87392641993938,34.405524484202,25.5315980642627,-29.9685612742323,4.43696320996969,601.145297234645,1176.75899640503,1195.75452821483,1174.37604947956,1176.59824002039,1184.21959758588,1190.2255513983
368,-4.92023111830349,-11.7942549939326,-6.87402387562906,9.33413943478081,-2.46011555915175,575.572653556286,1158.0193309882,1165.74123560713,1160.31854480456,1168.9225504199,1163.68764117139,1151.65911601155
369,-14.5571772397088,-31.2931149618817,-16.7359377221728,24.0145263420272,-7.27858861985442,546.943835574493,1110.62360887116,1105.16881828316,1114.23373430868,1100.16217156156,1099.78476959726,1110.55799438583
370,-5.26253920971067,82.0913197588525,87.3538589685631,-84.7225893637078,-2.63126960485533,570.091708946129,1052.8295589237,1062.80311155194,1069.78356445133,1055.51431889593,1057.91118577265,1073.99945278975
371,0.738087021978572,-12.8584194143186,-13.5965064362972,13.2274629253079,0.369043510989286,462.645806972476,938.888120381249,925.055621364474,916.40816506854,927.93874848503,926.630629302672,918.541164421593
372,-6.0239550806873,75.5060283119092,81.5299833925965,-78.5180058522528,-3.01197754034365,574.931552605136,1068.33312181768,1072.59010772733,1082.33841439628,1070.55215683428,1070.37469857957,1067.25503597778
373,6.39838780628634,-142.421383144509,-148.819770950